800,0.048957173,800,-0.000222562,800,0.000602111,800,0.000646517,800,0.000290227,800,0.000557139,800,0.001072588
799,0.049568802,799,-0.000277668,799,0.000706925,799,0.0006278,799,0.000318385,799,0.000499472,799,0.001202747
798,0.049391784,798,-0.00021123,798,0.00072116,798,0.000558512,798,0.000336182,798,0.000712215,798,0.00129366
797,0.049439758,797,-0.000338767,797,0.00057523,797,0.000446193,797,0.000185849,797,0.00058858,797,0.001069189
796,0.049291324,796,-0.000409375,796,0.000803726,796,0.000590057,796,0.000217937,796,0.000638636,796,0.00112841
795,0.049183846,795,-0.000313728,795,0.000668242,795,0.000589487,795,0.000298594,795,0.000644806,795,0.001182397
794,0.049056947,794,-0.000304054,794,0.000863197,794,0.000452541,794,0.00028344,794,0.000755129,794,0.001359015
793,0.048938777,793,-0.000364011,793,0.000711022,793,0.000756503,793,0.000317815,793,0.000875258,793,0.001113487
792,0.048935298,792,-0.000148457,792,0.000574064,792,0.000429972,792,0.000301573,792,0.000696762,792,0.001351303
791,0.048852414,791,-0.000207711,791,0.000693184,791,0.000584173,791,0.000218843,791,0.000650561,791,0.001407628
790,0.048724249,790,-0.000169779,790,0.000697177,790,0.000541432,790,0.000246971,790,0.000620179,790,0.001182189
789,0.048683941,789,-0.000263491,789,0.0006278,789,0.000502375,789,0.000297273,789,0.000515411,789,0.001245891
788,0.048700012,788,-0.000348441,788,0.000490272,788,0.000547237,788,-2.23E-05,788,0.000352451,788,0.00094719
787,0.048622761,787,-0.000322006,787,0.000585469,787,0.0004073,787,5.46E-05,787,0.000489469,787,0.000965065
786,0.048580028,786,-0.000282479,786,0.00076366,786,0.000562607,786,0.000142733,786,0.000579663,786,0.001064726
785,0.048489135,785,-0.000367063,785,0.00072046,785,0.000704877,785,7.69E-05,785,0.000454977,785,0.001157271
784,0.048399679,784,-0.000277668,784,0.000495922,784,0.000641358,784,9.46E-05,784,0.000429453,784,0.001215233
783,0.048320223,783,-0.000247451,783,0.000601255,783,0.000687817,783,-5.22E-05,783,0.000571291,783,0.001159763
782,0.048220389,782,-0.000262611,782,0.000542417,782,0.000680817,782,0.000209934,782,0.000437667,782,0.001255522
781,0.048193317,781,-0.000279685,781,0.000497943,781,0.00076895,781,-2.69E-05,781,0.000460704,781,0.001076014
780,0.048132174,780,-0.000235602,780,0.000490998,780,0.000718853,780,6.98E-05,780,0.000388593,780,0.001338371
779,0.048060603,779,-0.00023229,779,0.000449561,779,0.000608176,779,0.000213741,779,0.000563255,779,0.001181566
778,0.048000351,778,-0.000279323,778,0.000422457,778,0.000548222,778,0.000275203,778,0.000496906,778,0.00114323
777,0.047869429,777,-0.000256661,777,0.000458501,777,0.000547056,777,0.000121241,777,0.000587672,777,0.001199658
776,0.047831051,776,-0.00040684,776,0.00044469,776,0.000568802,776,0.000324187,776,0.000570643,776,0.001057019
775,0.047642749,775,-0.000197413,775,0.00064841,775,0.000548222,775,0.000352632,775,0.000611287,775,0.001213701
774,0.047582783,774,-0.000236637,774,0.000738896,774,0.000504007,774,0.000304992,774,0.00067475,774,0.001199035
773,0.047586512,773,-0.000393392,773,0.000683643,773,0.000339834,773,3.90E-05,773,0.000469618,773,0.001287507
772,0.047602456,772,-0.000455251,772,0.000485711,772,0.000406652,772,8.55E-05,772,0.000330716,772,0.001102821
771,0.047375683,771,-0.000286256,771,0.000608876,771,0.000657146,771,0.000176863,771,0.000738455,771,0.001226992
770,0.047460828,770,-0.000362304,770,0.000659661,770,0.000598689,770,0.000218118,770,0.000652921,770,0.001025699
769,0.047421183,769,-0.000194774,769,0.000595319,769,0.000640373,769,0.000105213,769,0.000668165,769,0.001208276
768,0.047342744,768,-0.00021568,768,0.000552706,768,0.000651261,768,0.000159642,768,0.000682683,768,0.001083981
767,0.047240708,767,-0.000285325,767,0.00064688,767,0.000774525,767,0.000223039,767,0.000722483,767,0.00116947
766,0.047146432,766,-0.000237568,766,0.000714652,766,0.000862678,766,0.000271629,766,0.000772632,766,0.001302177
765,0.047067262,765,-0.000314815,765,0.000529121,765,0.000851784,765,0.000391132,765,0.000603977,765,0.001156129
764,0.046991598,764,-0.000263698,764,0.000811169,764,0.000877592,764,0.000215192,764,0.000661087,764,0.001173026
763,0.046984676,763,-0.000232032,763,0.000822969,763,0.000835185,763,0.000197684,763,0.00069085,763,0.001396279
762,0.047003135,762,-0.000248227,762,0.000733554,762,0.000805619,762,0.00027883,762,0.000750305,762,0.001287923
761,0.046928808,761,-0.000224063,761,0.000705862,761,0.000643639,761,0.000237672,761,0.000690721,761,0.001348187
760,0.047021195,760,-0.000333025,760,0.000689295,760,0.000590161,760,0.000259843,760,0.000671587,760,0.001131654
759,0.046997022,759,-0.000122061,759,0.000875335,759,0.000624585,759,0.000322167,759,0.000851603,759,0.001266815
758,0.047039744,758,-0.000167864,758,0.000754143,758,0.000699251,758,0.000311727,758,0.00059029,758,0.001279822
757,0.047216177,757,-0.000419978,757,0.000583681,757,0.000328747,757,-2.87E-05,757,0.000573131,757,0.000989037
756,0.047077361,756,-0.000294586,756,0.000731817,756,0.000650821,756,0.000458398,756,0.000675268,756,0.001177802
755,0.047053676,755,-6.99E-05,755,0.001106247,755,0.000600089,755,0.000302428,755,0.00094802,755,0.00138571
754,0.047175545,754,-0.000181216,754,0.000867476,754,0.000617146,754,0.000373203,754,0.000616575,754,0.001366
753,0.047233842,753,-0.000191669,753,0.000655513,753,0.000641514,753,0.000416316,753,0.000769987,753,0.001388047
752,0.04734765,752,-0.000278754,752,0.0007376,752,0.000665961,752,0.000406185,752,0.000647658,752,0.001376102
751,0.047454387,751,-0.000206314,751,0.000668242,751,0.000686546,751,0.000218066,751,0.000695102,751,0.001398175
750,0.047507115,750,-0.000376167,750,0.000793327,750,0.000658805,750,0.00030336,750,0.000684498,750,0.001394228
749,0.047567852,749,-0.000370684,749,0.000764256,749,0.000725205,749,0.000353539,749,0.000649265,749,0.000947891
748,0.047587577,748,-0.000329817,748,0.000760833,748,0.000551048,748,1.48E-05,748,0.000669487,748,0.001265959
747,0.04754417,747,-0.000313625,747,0.000745586,747,0.000462803,747,0.000171813,747,0.000660361,747,0.001205395
746,0.047528315,746,-0.000322678,746,0.000769961,746,0.000757722,746,0.000256787,746,0.00061826,746,0.00110469
745,0.047576372,745,-0.000394064,745,0.000753573,745,0.000496025,745,4.16E-05,745,0.000552966,745,0.000925736
744,0.047609039,744,-0.000409013,744,0.000707392,744,0.000563878,744,0.00012919,744,0.000582255,744,0.001003359
743,0.047426235,743,-0.000281755,743,0.00075378,743,0.000554287,743,0.000324369,743,0.000822425,743,0.0011825
742,0.047455717,742,-0.000267734,742,0.000787725,742,0.000630989,742,0.000344187,742,0.000828105,742,0.001321935
741,0.047317687,741,-0.000252832,741,0.000833447,741,0.000573779,741,0.000344368,741,0.000650509,741,0.001298152
740,0.04729243,740,-0.000401151,740,0.000855545,740,0.000648565,740,0.000184891,740,0.000680246,740,0.001203967
739,0.047152288,739,-0.000300639,739,0.000786921,739,0.000672857,739,0.000304629,739,0.000724816,739,0.001188315
738,0.047051512,738,-0.000305088,738,0.000794727,738,0.000719942,738,0.000242775,738,0.000804322,738,0.001287066
737,0.046725709,737,-0.00023881,737,0.001078271,737,0.000774422,737,0.000434428,737,0.000870537,737,0.001322143
736,0.046667136,736,-0.000329714,736,0.000891184,736,0.000709596,736,0.000252332,736,0.000869811,736,0.001087354
735,0.046511292,735,-0.000329766,735,0.000887189,735,0.000639725,735,0.000188258,735,0.000831035,735,0.001115693
734,0.046377484,734,-0.000193584,734,0.000968956,734,0.000610458,734,0.000398127,734,0.000809354,734,0.001161424
733,0.046193294,733,-0.000230065,733,0.001038725,733,0.000534978,733,0.000367555,733,0.0008716,733,0.00118276
732,0.046087444,732,-0.000396133,732,0.000825044,732,0.000547212,732,0.000348876,732,0.000819183,732,0.001122882
731,0.045772489,731,-8.65E-06,731,0.001044952,731,0.000807046,731,0.000423572,731,0.000885581,731,0.001268996
730,0.04570185,730,-0.000281082,730,0.000952508,730,0.000686495,730,0.000579611,730,0.001032861,730,0.001305526
729,0.045532007,729,-0.000213041,729,0.000916735,729,0.000812103,729,0.000481487,729,0.000816408,729,0.001379529
728,0.04533565,728,-9.17E-05,728,0.001007978,728,0.000750876,728,0.000474127,728,0.000908641,728,0.001400227
727,0.045260087,727,-0.000308606,727,0.000749009,727,0.000663083,727,0.000409372,727,0.000736588,727,0.001249915
726,0.045184705,726,-0.000291275,726,0.000865168,726,0.000573494,726,0.000405356,726,0.00067405,726,0.001166356
725,0.045047741,725,-0.000204244,725,0.000949006,725,0.00053135,725,0.000359912,725,0.00081786,725,0.001201164
724,0.044948369,724,-0.000237361,724,0.001028216,724,0.000663161,724,0.000372011,724,0.000833188,724,0.001113669
723,0.044967748,723,-0.000332611,723,0.000955051,723,0.000587335,723,0.000351622,723,0.000687272,723,0.001379036
722,0.045145329,722,-0.000450027,722,0.000751809,722,0.000593375,722,0.00025746,722,0.000691395,722,0.001073652
721,0.045218602,721,-0.000391789,721,0.000909861,721,0.000531427,721,0.000383437,721,0.000630911,721,0.001122182
720,0.045380536,720,-0.000378495,720,0.000870537,720,0.000719086,720,0.000195302,720,0.000734229,720,0.001215492
719,0.045516342,719,-0.00039034,719,0.000832591,719,0.000804115,719,0.000268158,719,0.000770143,719,0.001115797
718,0.046091847,718,-0.000124235,718,0.000958864,718,0.000923272,718,0.000386598,718,0.001055721,718,0.001367818
717,0.045808185,717,-0.000115488,717,0.00090942,717,0.000901378,717,0.000449665,717,0.001246125,717,0.001263259
716,0.045995574,716,-0.000228513,716,0.000845715,716,0.000920807,716,0.000479077,716,0.00102749,716,0.001236052
715,0.045878034,715,-0.000194101,715,0.000967089,715,0.000793767,715,0.00047817,715,0.000997548,715,0.001373738
714,0.045619033,714,-0.000243312,714,0.001024791,714,0.001006032,714,0.000565251,714,0.001177102,714,0.001364312
713,0.045504496,713,-0.000307468,713,0.000896917,713,0.000937514,713,0.000408932,713,0.000961874,713,0.00129122
712,0.044799455,712,-3.23E-05,712,0.001300099,712,0.001129267,712,0.000664898,712,0.00127842,712,0.001533705
711,0.044170376,711,0.000117564,711,0.001426742,711,0.001369246,711,0.000562789,711,0.001577713,711,0.001661611
710,0.043807354,710,-0.000210816,710,0.001122156,710,0.000969294,710,0.000416861,710,0.001113929,710,0.001239297
709,0.043451671,709,-0.000429702,709,0.001076325,709,0.000742137,709,0.000327192,709,0.001074379,709,0.00129
708,0.04298095,708,-0.000255989,708,0.000954662,708,0.000865349,708,0.00027554,708,0.001029098,708,0.001317028
707,0.042706423,707,-0.000331576,707,0.000974041,707,0.000691732,707,0.000370327,707,0.001146085,707,0.001264661
706,0.042376928,706,-0.000336077,706,0.000876347,706,0.000716804,706,0.000314913,706,0.001133108,706,0.001284574
705,0.042027179,705,-0.000287912,705,0.001030344,705,0.000978115,705,0.000332659,705,0.001191066,705,0.001341435
704,0.041828979,704,-0.000258369,704,0.00093811,704,0.000787492,704,0.000369757,704,0.001113929,704,0.001145981
703,0.041601926,703,-0.000390444,703,0.001037038,703,0.000981487,703,0.000435724,703,0.001115564,703,0.001232703
702,0.041470841,702,-0.000467094,702,0.000800925,702,0.000795816,702,0.000384862,702,0.001160827,702,0.001110088
701,0.041308254,701,-0.000399082,701,0.000945582,701,0.000944285,701,0.000461533,701,0.001094569,701,0.001446247
700,0.041127626,700,-0.000410358,700,0.001068488,700,0.000866257,700,0.000249768,700,0.001266192,700,0.001365169
699,0.041028209,699,-0.000404875,699,0.00118385,699,0.000973678,699,0.000493641,699,0.001004734,699,0.001454506
698,0.040930748,698,-0.00022101,698,0.001184811,698,0.00105131,698,0.000393697,698,0.001216453,698,0.001389761
697,0.040846873,697,-0.000241708,697,0.001188315,697,0.001000687,697,0.000273546,697,0.001238596,697,0.001444143
696,0.040694866,696,-0.000296345,696,0.001391631,696,0.000915645,696,0.000409606,696,0.001277719,696,0.001521028
695,0.040707063,695,-0.000298932,695,0.001190261,695,0.001008341,695,0.000579611,695,0.001138169,695,0.001409264
694,0.04063062,694,-0.000376891,694,0.001240232,694,0.000897228,694,0.000613076,694,0.001148213,694,0.001510222
693,0.040545184,693,-0.000357855,693,0.001252615,693,0.001115875,693,0.000567947,693,0.001129474,693,0.001704203
692,0.040443715,692,-0.000184372,692,0.001302644,692,0.001287949,692,0.000600011,692,0.001292233,692,0.001596419
691,0.040401835,691,-0.000269958,691,0.001201008,691,0.001193532,691,0.000644858,691,0.001180839,691,0.001511546
690,0.040386464,690,-0.000321695,690,0.001193039,690,0.001187458,690,0.000687428,690,0.001126074,690,0.001833563
689,0.040400442,689,-0.000240932,689,0.001124154,689,0.000898551,689,0.000459616,689,0.001239167,689,0.001647735
688,0.040324796,688,1.63E-05,688,0.001318352,688,0.00107046,688,0.000628007,688,0.00130376,688,0.001686895
687,0.040243223,687,0.000281264,687,0.001515547,687,0.001380412,687,0.000559523,687,0.001739807,687,0.001616191
686,0.04026458,686,8.14E-05,686,0.001633392,686,0.001344292,686,0.000877566,686,0.001804059,686,0.001940106
685,0.040432461,685,-0.000153942,685,0.001432949,685,0.001114422,685,0.000637366,685,0.001451052,685,0.001706048
684,0.040469881,684,-0.000264733,684,0.001528587,684,0.001045679,684,0.000602033,684,0.001599952,684,0.001739236
683,0.040542714,683,-0.000324334,683,0.001329232,683,0.000925192,683,0.000582929,683,0.001370207,683,0.001542147
682,0.040509094,682,-0.000407202,682,0.001381399,682,0.001123946,682,0.00052614,682,0.001309005,682,0.001533289
681,0.040402092,681,-0.000130704,681,0.001461831,681,0.001118834,681,0.000574323,681,0.001581038,681,0.001719094
680,0.040438004,680,-0.000326403,680,0.001490506,680,0.001056474,680,0.000577745,680,0.001310381,680,0.001737079
679,0.040524069,679,-0.000386202,679,0.00134115,679,0.000815448,679,0.000297894,679,0.00134424,679,0.001542433
678,0.040442038,678,-0.000273166,678,0.001359664,678,0.000910768,678,0.000419063,678,0.001447805,678,0.0017015
677,0.040413428,677,-0.000283618,677,0.001222112,677,0.000979464,677,0.00057746,677,0.001293738,677,0.001639784
676,0.040329538,676,-0.000289102,676,0.001466766,676,0.001077441,676,0.00055986,676,0.001396175,676,0.001795949
675,0.04044465,675,-0.000376736,675,0.001173312,675,0.000807979,675,0.000698214,675,0.0013519,675,0.001769177
674,0.040440217,674,-0.000354545,674,0.001352315,674,0.000806086,674,0.000646854,674,0.001280575,674,0.001675877
673,0.040408485,673,-0.000370995,673,0.001237324,673,0.000915905,673,0.000740867,673,0.001212663,673,0.001795533
672,0.040394846,672,-0.000385478,672,0.001292077,672,0.000984549,672,0.000799914,672,0.00135486,672,0.001803903
671,0.040332977,671,-0.000270269,671,0.001304384,671,0.000944907,671,0.000784509,671,0.001320118,671,0.001755142
670,0.040337209,670,-0.000346371,670,0.001412848,670,0.000932766,670,0.000641073,670,0.001489779,670,0.001899077
669,0.04045701,669,-0.000283255,669,0.001460766,669,0.000980579,669,0.000707133,669,0.001507494,669,0.00173947
668,0.040731855,668,-0.000226598,668,0.001516092,668,0.001009249,668,0.000704488,668,0.001457026,668,0.001846093
667,0.040731087,667,-0.000191359,667,0.001470714,667,0.001138221,667,0.000680791,667,0.001645786,667,0.002052214
666,0.040682785,666,-0.000275288,666,0.00161775,666,0.001100018,666,0.000658209,666,0.001296776,666,0.001906123
665,0.040509008,665,-0.000156685,665,0.001609436,665,0.001091039,665,0.00057072,665,0.001558722,665,0.001787034
664,0.040513329,664,-0.000267372,664,0.00159286,664,0.001040593,664,0.000658909,664,0.00148913,664,0.001864109
663,0.040437065,663,-0.000172729,663,0.001665171,663,0.001079984,663,0.000614268,663,0.001385009,663,0.001748852
662,0.04033988,662,-0.000176196,662,0.001690689,662,0.001045316,662,0.00055916,662,0.001594626,662,0.002078068
661,0.040438116,661,-0.000162999,661,0.001437261,661,0.001193402,661,0.000513363,661,0.001507001,661,0.001694951
660,0.040354338,660,-0.000201864,660,0.001662988,660,0.001185226,660,0.000759874,660,0.001552928,660,0.002067741
659,0.040388256,659,-3.83E-05,659,0.001514949,659,0.001035585,659,0.000855753,659,0.001483701,659,0.001919929
658,0.040353596,658,-5.77E-05,658,0.001649554,658,0.001169315,658,0.000684369,658,0.001388437,658,0.002048495
657,0.040397689,657,-0.000208125,657,0.001521833,657,0.000985379,657,0.000845845,657,0.001364312,657,0.002023476
656,0.040304828,656,-1.54E-05,656,0.001664833,656,0.000988622,656,0.000999208,656,0.001559189,656,0.002031174
655,0.04023692,655,3.81E-05,655,0.001824803,655,0.001218088,655,0.001001517,655,0.001586312,655,0.001986261
654,0.040237177,654,-0.000167191,654,0.001898505,654,0.001145306,654,0.001216894,654,0.001682634,654,0.002192033
653,0.04028625,653,-0.000120871,653,0.001947776,653,0.001045575,653,0.000879823,653,0.001507962,653,0.002024932
652,0.040226553,652,-0.000139917,652,0.001949336,652,0.001104352,652,0.001098643,652,0.001708153,652,0.00208842
651,0.040247738,651,-0.000229289,651,0.001883867,651,0.001023831,651,0.000883662,651,0.001584052,651,0.002224243
650,0.040224738,650,-0.000136087,650,0.002005531,650,0.00127463,650,0.00072186,650,0.001585065,650,0.001985533
649,0.040280487,649,-0.000181578,649,0.001932903,649,0.001072666,649,0.000857438,649,0.001793532,649,0.002134591
648,0.040333517,648,-0.000193687,648,0.001884335,648,0.00119945,648,0.000645765,648,0.001583065,648,0.002145725
647,0.040298324,647,-0.000126305,647,0.001754258,647,0.001089456,647,0.000694921,647,0.001661325,647,0.00203081
646,0.040245242,646,-4.60E-05,646,0.001789763,646,0.001236909,646,0.000807486,646,0.001663742,646,0.002310738
645,0.040329766,645,-8.51E-05,645,0.001789113,645,0.001151691,645,0.000804634,645,0.001576466,645,0.002209959
644,0.040409051,644,-0.000254747,644,0.001547031,644,0.001076948,644,0.000738922,644,0.0015588,644,0.001971309
643,0.040501848,643,-0.000374409,643,0.001498532,643,0.000854508,643,0.000677654,643,0.001438793,643,0.001817108
642,0.040364932,642,-0.00027803,642,0.001782485,642,0.001066386,642,0.00085277,642,0.001524405,642,0.002121533
641,0.040399335,641,-0.000272856,641,0.001688896,641,0.000999519,641,0.000892637,641,0.001538043,641,0.002094506
640,0.040402915,640,-0.00034813,640,0.00174828,640,0.001018512,640,0.000932714,640,0.001634587,640,0.002290648
639,0.040407319,639,-0.00028398,639,0.00177253,639,0.001078012,639,0.000909497,639,0.001689104,639,0.00208907
638,0.040409308,638,-0.000265923,638,0.001811052,638,0.00114323,638,0.000927422,638,0.001632794,638,0.00228828
637,0.040390216,637,-7.92E-05,637,0.001869256,637,0.00097028,637,0.000800199,637,0.001641447,637,0.002296634
636,0.040355474,636,-0.000186132,636,0.002102336,636,0.001053334,636,0.000877488,636,0.001603174,636,0.002356283
635,0.040227804,635,-0.000129825,635,0.002026987,635,0.001170405,635,0.000869655,635,0.001966108,635,0.002428852
634,0.040280145,634,-0.000171435,634,0.002201113,634,0.00126383,634,0.000821102,634,0.001685154,634,0.002527833
633,0.040210851,633,-5.97E-05,633,0.002244642,633,0.00131425,633,0.000856634,633,0.001883659,633,0.002563766
632,0.040232547,632,-0.000156582,632,0.002200124,632,0.00124628,632,0.001017785,632,0.001823737,632,0.002481099
631,0.040186942,631,-9.10E-05,631,0.002264002,631,0.001374466,631,0.001036831,631,0.001892603,631,0.002549731
630,0.040217724,630,-5.34E-05,630,0.002239933,630,0.001390047,630,0.001009353,630,0.002058092,630,0.002510909
629,0.040213663,629,1.68E-06,629,0.002119087,629,0.001456402,629,0.001080529,629,0.001839178,629,0.002655798
628,0.040197503,628,-1.84E-05,628,0.002163415,628,0.001620894,628,0.001152418,628,0.001950325,628,0.002852689
627,0.040163741,627,3.83E-05,627,0.002144138,627,0.001542823,627,0.001091818,627,0.001951443,627,0.002566682
626,0.040285457,626,-1.29E-05,626,0.00208894,626,0.001391111,626,0.001211495,626,0.001816146,626,0.002648297
625,0.040308207,625,-8.95E-05,625,0.002095442,625,0.001313834,625,0.001119586,625,0.001787605,625,0.002690153
624,0.040279549,624,-1.48E-05,624,0.002142707,624,0.001278187,624,0.001174869,624,0.001705398,624,0.002592566
623,0.040306047,623,-0.000147111,623,0.002226637,623,0.001211806,623,0.000966673,623,0.001860105,623,0.002437468
622,0.040248252,622,-6.16E-05,622,0.002199682,622,0.001175362,622,0.001135781,622,0.001917329,622,0.002651605
621,0.040338229,621,-0.000223959,621,0.002229811,621,0.001137131,621,0.001056318,621,0.001735987,621,0.002453582
620,0.040289093,620,-0.000154978,620,0.002241494,620,0.001308304,620,0.001017033,620,0.001871934,620,0.002705469
619,0.040247541,619,-6.16E-05,619,0.002359432,619,0.001122934,619,0.001277538,619,0.001894397,619,0.002618426
618,0.040395129,618,-0.000158031,618,0.002278938,618,0.001167939,618,0.000815993,618,0.001684141,618,0.002401832
617,0.040371437,617,-7.42E-05,617,0.002330387,617,0.001424613,617,0.001012207,617,0.001907813,617,0.002430283
616,0.040374734,616,-3.26E-06,616,0.002423255,616,0.001216401,616,0.00121448,616,0.001902613,616,0.002516065
615,0.040541861,615,-0.000157203,615,0.002269778,615,0.001109335,615,0.001131291,615,0.001803305,615,0.002446814
614,0.040571105,614,-0.000100064,614,0.002277741,614,0.001247812,614,0.001263518,614,0.001759274,614,0.002573635
613,0.04065612,613,-0.000191566,613,0.002155116,613,0.001205576,613,0.001306487,613,0.001881553,613,0.002548351
612,0.040691569,612,-0.000194464,612,0.00224191,612,0.001256717,612,0.00127476,612,0.001907474,612,0.002665253
611,0.040697597,611,-2.61E-05,611,0.002293198,611,0.001348706,611,0.001133627,611,0.002088498,611,0.002712996
610,0.040810216,610,-0.000217698,610,0.002030212,610,0.00132326,610,0.00113887,610,0.001984337,610,0.002782472
609,0.040819943,609,-0.000183545,609,0.002187298,609,0.001276499,609,0.001243944,609,0.001892629,609,0.002736024
608,0.040824946,608,-0.000159739,608,0.002222213,608,0.001549473,608,0.001410952,608,0.002147338,608,0.002843231
607,0.040736802,607,-6.90E-05,607,0.002321018,607,0.00147196,607,0.001251343,607,0.002016974,607,0.002994434
606,0.040742259,606,-7.68E-05,606,0.002394127,606,0.001430274,606,0.001271255,606,0.002014685,606,0.002850787
605,0.040739957,605,-4.90E-05,605,0.002336581,605,0.001280939,605,0.001269126,605,0.002216515,605,0.002873222
604,0.040662203,604,-2.99E-05,604,0.002391004,604,0.001462688,604,0.001244152,604,0.002059028,604,0.002969829
603,0.04053035,603,5.38E-05,603,0.002616499,603,0.001453935,603,0.001455779,603,0.002310426,603,0.003017711
602,0.040550925,602,6.86E-05,602,0.002558766,602,0.001311004,602,0.001441754,602,0.00214661,602,0.002813893
601,0.040445387,601,0.000109071,601,0.002691429,601,0.001392721,601,0.001554955,601,0.002189145,601,0.003214166
600,0.040499859,600,-0.000163983,600,0.002723937,600,0.001280679,600,0.001475363,600,0.002134175,600,0.002878095
599,0.040420245,599,-6.46E-05,599,0.002627437,599,0.001407264,599,0.00156132,599,0.002243419,599,0.003108405
598,0.040374789,598,-2.80E-05,598,0.002525099,598,0.00134289,598,0.001652568,598,0.002383221,598,0.0032856
597,0.04034996,597,-0.000204089,597,0.002546346,597,0.001635133,597,0.001531159,597,0.002247635,597,0.003172834
596,0.040337976,596,5.58E-05,596,0.002616577,596,0.00151817,596,0.001537134,596,0.002546502,596,0.003133904
595,0.040299628,595,-5.90E-06,595,0.002566057,595,0.001558618,595,0.001539368,595,0.00249784,595,0.003223685
594,0.04039209,594,-0.00013852,594,0.002441295,594,0.00156558,594,0.001727254,594,0.002353498,594,0.003137972
593,0.040422291,593,-3.00E-05,593,0.002230722,593,0.001275798,593,0.001298386,593,0.002259422,593,0.003137581
592,0.040459026,592,-0.000168123,592,0.002204651,592,0.001437884,592,0.001320248,592,0.002282139,592,0.003209315
591,0.040414676,591,-8.93E-05,591,0.002384757,591,0.00146048,591,0.001381944,591,0.002212613,591,0.003245591
590,0.040367518,590,-7.04E-05,590,0.002368984,590,0.001413497,590,0.001359456,590,0.002379317,590,0.003290452
589,0.040418342,589,-0.000167812,589,0.002334005,589,0.001346629,589,0.001512559,589,0.002214096,589,0.003293894
588,0.040403966,588,-0.000152649,588,0.002572958,588,0.001466012,588,0.001379451,588,0.002462173,588,0.003362368
587,0.040382657,587,2.25E-05,587,0.002518486,587,0.001478298,587,0.001568776,587,0.002500651,587,0.003052459
586,0.040428031,586,-0.000241604,586,0.002599363,586,0.001517105,586,0.001544797,586,0.002405112,586,0.003360881
585,0.040351581,585,-0.000112227,585,0.002668691,585,0.00158704,585,0.001538588,585,0.002302098,585,0.003445698
584,0.040328488,584,-9.27E-05,584,0.002738889,584,0.001659714,584,0.001636016,584,0.002653116,584,0.003429208
583,0.040272787,583,6.06E-05,583,0.00280889,583,0.001755194,583,0.00171426,583,0.002572463,583,0.003546243
582,0.04029784,582,1.78E-05,582,0.002967223,582,0.001775701,582,0.001817342,582,0.002676348,582,0.003648873
581,0.04026214,581,5.36E-05,581,0.002999465,581,0.001765252,581,0.001670914,581,0.002563375,581,0.003642895
580,0.040259782,580,0.000103271,580,0.002924637,580,0.00186832,580,0.001691729,580,0.002802116,580,0.003763461
579,0.040214259,579,0.000198435,579,0.002915334,579,0.001797041,579,0.001729126,579,0.002894642,579,0.003875806
578,0.040302299,578,8.30E-05,578,0.002894642,578,0.001726059,578,0.00179426,578,0.002791252,578,0.003809993
577,0.040261913,577,0.000142137,577,0.002929823,577,0.001658935,577,0.001809856,577,0.002759938,577,0.00389563
576,0.040312354,576,1.86E-06,576,0.002881795,576,0.00170649,576,0.001881059,576,0.00274475,576,0.004028571
575,0.040207103,575,3.93E-05,575,0.002869444,575,0.001846275,575,0.002208658,575,0.002918565,575,0.004086054
574,0.040296901,574,-5.31E-05,574,0.00274785,574,0.001880097,574,0.002209829,574,0.002928155,574,0.004045371
573,0.040281907,573,-0.00017987,573,0.002687783,573,0.001898973,573,0.002014243,573,0.002908819,573,0.004112395
572,0.040253248,572,1.93E-05,572,0.002773693,572,0.002048573,572,0.002152203,572,0.003061192,572,0.00409324
571,0.040248591,571,-1.39E-05,571,0.002812486,571,0.001938337,571,0.001942862,571,0.00316376,571,0.004336641
570,0.040243424,570,3.60E-05,570,0.002852689,570,0.001998744,570,0.002182875,570,0.003186159,570,0.004205148
569,0.040320646,569,-5.84E-05,569,0.002874916,569,0.001899805,569,0.002067273,569,0.003225171,569,0.00419059
568,0.040333658,568,5.30E-05,568,0.002851517,568,0.001923439,568,0.00215033,568,0.00319007,568,0.004361899
567,0.040901423,567,-4.99E-05,567,0.002884636,567,0.001947854,567,0.002097575,567,0.003398761,567,0.004535211
566,0.04090108,566,-0.000116057,566,0.00298075,566,0.002142629,566,0.002212925,566,0.003518997,566,0.004672692
565,0.040878411,565,-1.01E-05,565,0.002965451,565,0.002125148,565,0.002236004,565,0.003677171,565,0.005058943
564,0.040921617,564,-0.000176817,564,0.003048679,564,0.002362946,564,0.002464516,564,0.00404059,564,0.004931498
563,0.040921163,563,-0.000155702,563,0.003170591,563,0.002438275,563,0.002796072,563,0.004044038,563,0.005166908
562,0.040879324,562,-0.000103946,562,0.003420024,562,0.002463709,562,0.002803445,562,0.004006703,562,0.00553071
561,0.040872157,561,-0.000152959,561,0.003535517,561,0.002582723,561,0.003161569,561,0.00436603,561,0.005734103
560,0.040968295,560,-0.000342336,560,0.003444837,560,0.002588165,560,0.003098524,560,0.004642314,560,0.006147054
559,0.040799186,559,-7.68E-05,559,0.003646393,559,0.002806155,559,0.00345817,559,0.0048555,559,0.006539901
558,0.040732138,558,6.24E-06,558,0.003608857,558,0.002967145,558,0.003722677,558,0.005427425,558,0.006873375
557,0.040691085,557,3.83E-05,557,0.003837048,557,0.003170122,557,0.004059924,557,0.005867555,557,0.007399198
556,0.040608365,556,6.65E-05,556,0.003888577,556,0.003299685,556,0.004546119,556,0.006393475,556,0.0080408
555,0.040624768,555,-2.62E-05,555,0.003819212,555,0.003652267,555,0.004772527,555,0.006788596,555,0.0085263
554,0.040544048,554,8.71E-05,554,0.004007461,554,0.004009237,554,0.005152946,554,0.00753535,554,0.009438214
553,0.04045644,553,2.82E-05,553,0.004097735,553,0.004311542,553,0.005847011,553,0.008158556,553,0.010189912
552,0.040378027,552,-3.84E-05,552,0.004165917,552,0.00477661,552,0.006404876,552,0.008975609,552,0.010988046
551,0.040132735,551,0.000126653,551,0.004647469,551,0.00520733,551,0.006983581,551,0.009734396,551,0.012045834
550,0.040058583,550,0.000118677,550,0.004733872,550,0.005492224,550,0.007513805,550,0.010516203,550,0.012779004
549,0.039961282,549,7.30E-05,549,0.004846469,549,0.005910929,549,0.008129833,549,0.011297801,549,0.013706473
548,0.039827999,548,0.000167825,548,0.005221451,548,0.006372459,548,0.008731233,548,0.012274935,548,0.014818076
547,0.039758664,547,0.000205661,547,0.005453585,547,0.00675736,547,0.009356318,547,0.012966856,547,0.015579394
546,0.039612707,546,0.000348643,546,0.005673332,546,0.007029066,546,0.01004278,546,0.013700488,546,0.016475253
545,0.039564613,545,0.000440906,545,0.005876608,545,0.007387718,545,0.010360185,545,0.01435233,545,0.017442184
544,0.039409455,544,0.000470732,544,0.006244892,544,0.007640876,544,0.011064674,544,0.01523775,544,0.018098941
543,0.03941603,543,0.000379369,543,0.006457341,543,0.008027563,543,0.011173505,543,0.015511328,543,0.018815108
542,0.039227124,542,0.000450675,542,0.006661352,542,0.008529178,542,0.011748046,542,0.016368821,542,0.019399527
541,0.039502636,541,8.10E-05,541,0.00658965,541,0.008514157,541,0.011704803,541,0.016421858,541,0.019643754
540,0.039505981,540,-0.000287084,540,0.006528339,540,0.008520862,540,0.011780813,540,0.016801648,540,0.020191489
539,0.039499063,539,-0.00025573,539,0.006584972,539,0.008861515,539,0.011968528,539,0.017057285,539,0.020557517
538,0.03950825,538,-0.000427633,538,0.006536301,538,0.008991809,538,0.012021457,538,0.017359195,538,0.020803645
537,0.039549954,537,-0.000492279,537,0.006434195,537,0.009257989,537,0.012258505,537,0.017462825,537,0.020940507
536,0.039461669,536,-0.000374512,536,0.006619454,536,0.009136179,536,0.012508259,536,0.017700141,536,0.021293085
535,0.039514344,535,-0.000480695,535,0.006542004,535,0.009276342,535,0.012631711,535,0.017862083,535,0.021304667
534,0.03937329,534,-0.000308451,534,0.00657488,534,0.009372083,534,0.012912853,534,0.017998803,534,0.021636724
533,0.039273959,533,-0.000219768,533,0.006817178,533,0.009500652,533,0.013321932,533,0.018215895,533,0.021731693
532,0.039241631,532,-3.25E-05,532,0.006957829,532,0.009449325,532,0.013073152,532,0.018135754,532,0.021881942
531,0.039187685,531,-9.19E-05,531,0.006927212,531,0.009395412,531,0.013071738,531,0.018308308,531,0.021889646
530,0.039174143,530,-0.000124804,530,0.006662798,530,0.009481179,530,0.013205143,530,0.018358316,530,0.021932716
529,0.039152049,529,-0.000324023,529,0.006893021,529,0.009471892,529,0.013252619,529,0.01846556,529,0.022240598
528,0.038969003,528,-0.000274667,528,0.007115919,528,0.009816681,528,0.013453359,528,0.018753316,528,0.022366438
527,0.038928255,527,-0.000365925,527,0.007159365,527,0.009972769,527,0.013635467,527,0.018874096,527,0.022582345
526,0.038850769,526,-0.000274563,526,0.007324267,526,0.010018223,526,0.013702171,526,0.018910054,526,0.02286591
525,0.038865633,525,-0.000316263,525,0.007349989,525,0.010057086,525,0.013685341,525,0.019064467,525,0.023016006
524,0.038807403,524,-0.000273373,524,0.007383005,524,0.010069749,524,0.013715182,524,0.019207411,524,0.023047341
523,0.038800497,523,-0.000157565,523,0.007337641,523,0.010120487,523,0.013872223,523,0.019397579,523,0.023346372
522,0.038813006,522,-0.00014561,522,0.007264958,522,0.010201891,522,0.013944016,522,0.019577703,522,0.023371995
521,0.038927548,521,-0.000305657,521,0.007249797,521,0.010077512,521,0.01437593,521,0.019743785,521,0.023867346
520,0.03893004,520,-5.59E-06,520,0.007300574,520,0.010413794,520,0.014389067,520,0.019921126,520,0.023975113
519,0.039021306,519,-0.000185718,519,0.007282937,519,0.010480614,519,0.014700133,519,0.020006854,519,0.023938131
518,0.039112136,518,-0.000200777,518,0.007271302,518,0.010287631,518,0.014496219,518,0.020166351,518,0.024052672
517,0.039174031,517,-0.000325937,517,0.007197183,517,0.010443491,517,0.014626556,517,0.020202525,517,0.02413944
516,0.039187714,516,-0.000456233,516,0.007244848,516,0.010450942,516,0.014697536,516,0.020209469,516,0.024291536
515,0.039216641,515,-0.000477954,515,0.007201868,515,0.010514718,515,0.014853004,515,0.020353792,515,0.024441166
514,0.03916182,514,-0.000306796,514,0.00735536,514,0.01073537,514,0.014927451,514,0.020657623,514,0.024524041
513,0.039091006,513,-0.000179715,513,0.007478751,513,0.010816014,513,0.015187966,513,0.020832025,513,0.024657367
512,0.039024845,512,-0.000161861,512,0.00760007,512,0.010980613,512,0.015234506,512,0.020974329,512,0.025109563
511,0.039088793,511,-0.000187167,511,0.007849529,511,0.01087857,511,0.015080911,511,0.021269785,511,0.025009001
510,0.039010827,510,-4.25E-05,510,0.008025031,510,0.011133799,510,0.015282579,510,0.021330984,510,0.02553557
509,0.039033681,509,-4.49E-05,509,0.008161062,509,0.011075879,509,0.015643794,509,0.02138689,509,0.025525413
508,0.03896277,508,6.32E-05,508,0.008326742,508,0.011169734,508,0.015784675,508,0.02176718,508,0.025835386
507,0.039035633,507,5.92E-05,507,0.008173724,507,0.011180464,507,0.015771845,507,0.021797093,507,0.026038511
506,0.038821612,506,0.000160186,506,0.00852828,506,0.011543785,506,0.016238902,506,0.022074591,506,0.026354901
505,0.038939271,505,0.000100863,505,0.008339196,505,0.011562048,505,0.016466057,505,0.022223296,505,0.026491048
504,0.038943913,504,2.38E-05,504,0.008413617,504,0.011665687,504,0.016519483,504,0.022346653,504,0.026727926
503,0.038927805,503,2.02E-06,503,0.008358961,503,0.011788367,503,0.016594969,503,0.022648226,503,0.027116757
502,0.038966086,502,8.11E-05,502,0.00841008,502,0.011569094,502,0.016663367,502,0.022812298,502,0.027116783
501,0.039102759,501,1.88E-05,501,0.008261571,501,0.011884477,501,0.016762661,501,0.022875488,501,0.027301241
500,0.039051436,500,-1.11E-05,500,0.008323628,500,0.012070187,500,0.017145656,500,0.023381174,500,0.027600512
499,0.03914896,499,4.63E-05,499,0.008177496,499,0.01206851,499,0.017122444,499,0.023276422,499,0.027806617
498,0.039366458,498,-9.67E-05,498,0.008050662,498,0.011795362,498,0.016974263,498,0.023363773,498,0.027688185
497,0.03941844,497,-0.00021806,497,0.008067566,497,0.011913078,497,0.016953833,497,0.023465948,497,0.027873546
496,0.03951386,496,-0.000200673,496,0.008118887,496,0.01178834,496,0.017175116,496,0.023564432,496,0.027977893
495,0.039612763,495,-0.00047392,495,0.008277295,495,0.011734589,495,0.017086444,495,0.023836553,495,0.028218402
494,0.03946935,494,-0.000307727,494,0.008487495,494,0.011883467,494,0.017267765,494,0.024185525,494,0.028654082
493,0.039423913,493,-0.000329559,493,0.008560383,493,0.011966213,493,0.017697876,493,0.02435297,493,0.028821543
492,0.03942601,492,-0.000300225,492,0.00875025,492,0.012224264,492,0.017840263,492,0.024556333,492,0.029080926
491,0.039381478,491,-0.000266388,491,0.00887195,491,0.012306836,491,0.018058706,491,0.024904486,491,0.029344425
490,0.039300229,490,-0.000243363,490,0.008964325,490,0.012563226,490,0.018620979,490,0.025202164,490,0.029629532
489,0.03923228,489,-0.000183286,489,0.009021858,489,0.012714387,489,0.018654782,489,0.025365859,489,0.030009598
488,0.039107349,488,-9.42E-05,488,0.009104325,488,0.01293648,488,0.018807294,488,0.025490029,488,0.030254869
487,0.039006662,487,1.92E-05,487,0.009190801,487,0.013335973,487,0.018960645,487,0.025867557,487,0.030508777
486,0.03893052,486,2.63E-05,486,0.009201033,486,0.013344275,486,0.019176541,486,0.026079439,486,0.030983318
485,0.038755719,485,0.000214259,485,0.009367638,485,0.013471008,485,0.019382691,485,0.026564434,485,0.031272732
484,0.03859904,484,0.000229255,484,0.009316777,484,0.013587763,484,0.019577079,484,0.026833816,484,0.03178874
483,0.038526956,483,0.000258522,483,0.009354757,483,0.01364674,483,0.019715533,483,0.027030412,483,0.031926826
482,0.038478788,482,9.37E-05,482,0.009443426,482,0.013723651,482,0.01986213,482,0.027218331,482,0.032193422
481,0.038293086,481,0.000170493,481,0.009520337,481,0.013833231,481,0.020031387,481,0.027654801,481,0.032630317
480,0.038370274,480,-3.46E-05,480,0.009361316,480,0.013973795,480,0.020170473,480,0.027730701,480,0.032746896
479,0.038394339,479,-0.00032185,479,0.009273511,479,0.01387364,479,0.020175815,479,0.028097564,479,0.032909632
478,0.038446404,478,-0.000326299,478,0.009394064,478,0.01388441,478,0.020321485,478,0.028159071,478,0.033245377
477,0.038196631,477,-1.78E-05,477,0.009799576,477,0.014216058,477,0.020840172,477,0.028584018,477,0.033569105
476,0.038321443,476,-0.000183234,476,0.009665281,476,0.014353293,476,0.02093032,476,0.028691828,476,0.03377188
475,0.038254663,475,-2.56E-05,475,0.009884946,475,0.014553928,475,0.021310076,475,0.029089175,475,0.033906512
474,0.03823233,474,-0.000120043,474,0.009773947,474,0.014593439,474,0.021271417,474,0.029290698,474,0.034194294
473,0.037931044,473,0.00022752,473,0.01033341,473,0.015069547,473,0.021998147,473,0.029948521,473,0.035002053
472,0.037871215,472,0.000356104,472,0.010454813,472,0.015387377,472,0.022006098,472,0.030291727,472,0.035315383
471,0.037835997,471,0.000392013,471,0.010428006,471,0.015612237,471,0.02241637,471,0.030847702,471,0.035569374
470,0.037802473,470,0.000288258,470,0.010374608,470,0.015675435,470,0.022372026,470,0.030892838,470,0.036187883
469,0.037777681,469,0.000343539,469,0.010393776,469,0.015688101,469,0.022890441,469,0.031274568,469,0.036600318
468,0.03773747,468,0.000316856,468,0.010387625,468,0.01589451,468,0.022921193,468,0.031635862,468,0.03677772
467,0.037929572,467,0.000107336,467,0.010341389,467,0.01580677,467,0.023078488,467,0.031744793,467,0.037128989
466,0.037824135,466,0.000177329,466,0.010400643,466,0.016186289,466,0.023226146,466,0.032235045,466,0.03746378
465,0.037812896,465,0.000280021,465,0.010563545,465,0.01638132,465,0.023536094,465,0.03258916,465,0.038111389
464,0.03783207,464,0.000388385,464,0.010670421,464,0.01648399,464,0.023915593,464,0.032833409,464,0.038190696
463,0.037873391,463,0.000331311,463,0.010620414,463,0.016678672,463,0.024196034,463,0.033387754,463,0.038735881
462,0.037866611,462,0.00032069,462,0.01081275,462,0.016987372,462,0.024450999,462,0.033279445,462,0.039127827
461,0.037874434,461,0.000106845,461,0.010527607,461,0.017110704,461,0.02467419,461,0.033882413,461,0.039609957
460,0.037839442,460,0.000213456,460,0.010701302,460,0.017182199,460,0.024985474,460,0.034156654,460,0.039997272
459,0.037869155,459,0.000239123,459,0.010958604,459,0.017511012,459,0.025293965,459,0.034542385,459,0.040128507
458,0.037864774,458,5.65E-05,458,0.011111598,458,0.017622737,458,0.025706999,458,0.034932163,458,0.040569711
457,0.038014241,457,-0.000116161,457,0.01105785,457,0.017727455,457,0.025600338,457,0.034943216,457,0.040862259
456,0.0379939,456,-0.000241708,456,0.011205565,456,0.017618613,456,0.025589548,456,0.035451334,456,0.041406028
455,0.038128007,455,-0.000209108,455,0.011138447,455,0.017772326,455,0.025608715,455,0.035700064,455,0.041778304
454,0.038231485,454,-0.000316056,454,0.011097656,454,0.017639156,454,0.025915036,454,0.035905413,454,0.042137608
453,0.038297072,453,-0.000281755,453,0.011065258,453,0.017637134,453,0.026148412,453,0.036390141,453,0.042498749
452,0.038271993,452,-0.000294224,452,0.011156268,452,0.017836621,452,0.026532982,452,0.03687273,452,0.04315849
451,0.038348641,451,-0.00027834,451,0.010991471,451,0.018154971,451,0.026718318,451,0.037039924,451,0.043582097
450,0.038385458,450,-0.000230945,450,0.010750256,450,0.01828984,450,0.027089203,450,0.037661098,450,0.04423612
449,0.038378954,449,-0.000245847,449,0.010847093,449,0.018600309,449,0.027554778,449,0.037968643,449,0.044653691
448,0.038338717,448,-0.000527029,448,0.01114267,448,0.018934308,448,0.027985651,448,0.038467191,448,0.045212802
447,0.038322996,447,-0.000568808,447,0.011214809,447,0.019266885,447,0.028320042,447,0.038960282,447,0.045886636
446,0.038327154,446,-0.000565292,446,0.011314778,446,0.019540118,446,0.028809179,446,0.039383009,446,0.046323795
445,0.038214974,445,-0.000400582,445,0.011658614,445,0.019900287,445,0.029371399,445,0.040084217,445,0.047039423
444,0.038155675,444,-0.000479764,444,0.011898471,444,0.020149838,444,0.029710712,444,0.0404796,444,0.047651418
443,0.038169101,443,-0.000472369,443,0.011916696,443,0.020115267,443,0.030005187,443,0.04096232,443,0.048128475
442,0.038186453,442,-0.000371719,442,0.012016799,442,0.020438874,442,0.030450605,442,0.041289892,442,0.048944917
441,0.038216557,441,-0.000453389,441,0.012372165,441,0.02066699,441,0.030957937,441,0.042167187,441,0.049759127
440,0.038199063,440,-0.000182147,440,0.012590938,440,0.021231756,440,0.031314738,440,0.042614467,440,0.050200816
439,0.038197678,439,6.44E-05,439,0.013030044,439,0.021534706,439,0.03167019,439,0.043153174,439,0.050917223
438,0.038276091,438,0.000155499,438,0.013160448,438,0.021740075,438,0.031973213,438,0.043614063,438,0.05142932
437,0.038373921,437,0.000297143,437,0.013476108,437,0.022060592,437,0.032391313,437,0.044081718,437,0.052021213
436,0.038445186,436,0.000179427,436,0.013427808,436,0.022279942,436,0.032678235,436,0.044481933,436,0.052360885
435,0.038586985,435,7.29E-05,435,0.013271247,435,0.022547279,435,0.032838181,435,0.044721946,435,0.052871857
434,0.038435541,434,0.000108036,434,0.013491676,434,0.022589598,434,0.033457115,434,0.045246527,434,0.05341563
433,0.038394421,433,4.16E-05,433,0.013482997,433,0.02296868,433,0.033737693,433,0.046024844,433,0.054164689
432,0.038516916,432,-0.000278961,432,0.013399588,432,0.022973483,432,0.034083318,432,0.04608465,432,0.054549333
431,0.038559686,431,-0.000238551,431,0.013437019,431,0.023364155,431,0.034471676,431,0.046660539,431,0.054768197
430,0.038631067,430,-0.000470507,430,0.013487483,430,0.023344761,430,0.034674253,430,0.047074243,430,0.055471092
429,0.038761918,429,-0.000489228,429,0.013533575,429,0.023424556,429,0.034769788,429,0.047259759,429,0.055803936
428,0.038668331,428,-0.000376167,428,0.013733697,428,0.023763655,428,0.035158675,428,0.048039265,428,0.056374677
427,0.038748134,427,-0.000278082,427,0.013914773,427,0.023928173,427,0.035624783,427,0.048229299,427,0.056915835
426,0.038490158,426,-1.58E-05,426,0.014347541,426,0.024539379,426,0.03596418,426,0.049041152,426,0.057782426
425,0.038554538,425,-3.99E-06,425,0.014499886,425,0.024756478,425,0.036353126,425,0.049647123,425,0.058332294
424,0.038495813,424,1.29E-05,424,0.014748228,424,0.02499466,424,0.036723264,424,0.050148167,424,0.059113562
423,0.03841747,423,0.000115985,423,0.015172391,423,0.025434582,423,0.037277695,423,0.050772063,423,0.059665091
422,0.038396373,422,0.000189345,422,0.015330872,422,0.025703181,422,0.037736848,422,0.051275488,422,0.060289439
421,0.038297042,421,0.000202968,421,0.015541295,421,0.026217781,421,0.038277593,421,0.051897451,421,0.061056778
420,0.038300153,420,0.000136,420,0.015480665,420,0.026456932,420,0.038496859,420,0.052354082,420,0.061745252
419,0.038268629,419,0.000194939,419,0.01572514,419,0.026627181,419,0.039067835,419,0.053035472,419,0.062317498
418,0.038302526,418,0.000163268,418,0.015612129,418,0.026858214,418,0.039554264,418,0.053476349,418,0.063088939
417,0.038280532,417,0.000171658,417,0.015676722,417,0.027160514,417,0.040231325,417,0.05415393,417,0.063751295
416,0.038268771,416,0.000213741,416,0.015974827,416,0.027271884,416,0.040654812,416,0.054796681,416,0.064427309
415,0.038334221,415,0.000231586,415,0.015978077,415,0.027646497,415,0.040877331,415,0.055229563,415,0.064891875
414,0.0383269,414,0.000391624,414,0.016048124,414,0.027949043,414,0.041277111,414,0.055672497,414,0.065770872
413,0.038346577,413,0.000308463,413,0.016100505,413,0.028199509,413,0.041724898,413,0.056431331,413,0.066524215
412,0.038323957,412,0.000355482,412,0.016391454,412,0.028501721,412,0.04208741,412,0.057093907,412,0.067107543
411,0.038397394,411,0.00035885,411,0.016503969,411,0.028888823,411,0.04263474,411,0.057541382,411,0.067821026
410,0.038435176,410,0.000197218,410,0.016681282,410,0.029100856,410,0.042706881,410,0.058263939,410,0.068467766
409,0.038281746,409,0.000328229,409,0.017101415,409,0.030037614,409,0.043336648,409,0.058965016,409,0.069390297
408,0.038145076,408,0.000607788,408,0.017620312,408,0.030318402,408,0.044177338,408,0.059775047,408,0.070363827
407,0.038150813,407,0.000328384,407,0.017929791,407,0.030368757,407,0.044546004,407,0.060466196,407,0.070975594
406,0.038269252,406,0.000294112,406,0.017970879,406,0.030843312,406,0.044819117,406,0.060809322,406,0.071779378
405,0.038190357,405,0.000393075,405,0.018393854,405,0.031029413,405,0.045665417,405,0.061969146,405,0.072748765
404,0.038246807,404,0.000189527,404,0.01802654,404,0.031136801,404,0.045856051,404,0.062184375,404,0.073288813
403,0.038702939,403,-0.00053282,403,0.017662637,403,0.031069508,403,0.045951143,403,0.062445942,403,0.073735259
402,0.038529504,402,-0.000315746,402,0.017861219,402,0.031455092,402,0.046639323,402,0.063316077,402,0.074469894
401,0.038617402,401,-0.00045944,401,0.017781198,401,0.031698789,401,0.047001492,401,0.063873,401,0.075524405
400,0.038602632,400,-0.000251228,400,0.0180008,400,0.03222657,400,0.047428258,400,0.064605094,400,0.075754657
399,0.038501866,399,-2.70E-05,399,0.018179292,399,0.032578137,399,0.048136223,399,0.064991467,399,0.076700322
398,0.038482521,398,-8.52E-05,398,0.018228987,398,0.033004083,398,0.048356131,398,0.065578245,398,0.077542819
397,0.038410231,397,-0.000125736,397,0.018531471,397,0.033327043,397,0.048762161,397,0.066436008,397,0.078586027
396,0.038393661,396,-8.29E-05,396,0.018489573,396,0.033484936,396,0.049103986,396,0.067001298,396,0.07924258
395,0.038396798,395,-0.000117041,395,0.018510265,395,0.033668984,395,0.049701657,395,0.067814611,395,0.080256879
394,0.038246043,394,-8.44E-05,394,0.018650999,394,0.034305803,394,0.050243068,394,0.068784855,394,0.08089029
393,0.038332526,393,-0.000481781,393,0.018972652,393,0.034457523,393,0.050628733,393,0.069386624,393,0.081793368
392,0.038239285,392,-0.000474179,392,0.019274706,392,0.034727894,392,0.051332064,392,0.07024014,392,0.082805537
391,0.038288474,391,-0.000532614,391,0.019380229,391,0.035423893,391,0.052164745,391,0.07125935,391,0.083974876
390,0.038202059,390,-0.000168588,390,0.020254895,390,0.035882302,390,0.052929897,390,0.072086856,390,0.084959373
389,0.038241461,389,-8.17E-05,389,0.020420777,389,0.036196548,389,0.05337055,389,0.072642632,389,0.085693836
388,0.038516972,388,-0.00036996,388,0.020318337,388,0.0362246,388,0.053604927,388,0.073199309,388,0.086263783
387,0.038073182,387,0.00016666,387,0.021049315,387,0.037376709,387,0.054560456,387,0.074248128,387,0.087680288
386,0.038082112,386,0.000124944,386,0.020991171,386,0.037410367,386,0.05497336,386,0.074781865,386,0.088205047
385,0.038158331,385,0.000187558,385,0.021160243,385,0.037933979,385,0.055377774,385,0.07557983,385,0.088936135
384,0.038094718,384,0.00010076,384,0.021503234,384,0.038347878,384,0.055850741,384,0.076230921,384,0.089824632
383,0.038097598,383,0.000236585,383,0.021444133,383,0.038653929,383,0.056260746,383,0.07676886,383,0.090451062
382,0.038097456,382,0.000169664,382,0.021524806,382,0.038856741,382,0.056583963,382,0.077408381,382,0.091058575
381,0.037923187,381,0.000338928,381,0.022059994,381,0.03984227,381,0.057526015,381,0.078572877,381,0.092366219
380,0.037935786,380,0.000645143,380,0.021441821,380,0.039433151,380,0.057545431,380,0.078539498,380,0.092521094
379,0.03825916,379,-0.000502105,379,0.021210309,379,0.039485369,379,0.05745326,379,0.078849383,379,0.092711918
378,0.038069595,378,-0.000419306,378,0.021506825,378,0.039887954,378,0.057581071,378,0.079278089,378,0.093589462
377,0.038149655,377,-0.000502467,377,0.021495266,377,0.039580945,377,0.057983991,377,0.07979814,377,0.094026938
376,0.038006444,376,-0.000403789,376,0.021199709,376,0.039997101,376,0.058475498,376,0.080426529,376,0.094598755
375,0.038064849,375,-0.000915295,375,0.02143766,375,0.040259641,375,0.058920011,375,0.081162877,375,0.095556118
374,0.037939236,374,-0.000299242,374,0.022190984,374,0.040934362,374,0.05966628,374,0.081925295,374,0.096571773
373,0.038003195,373,-0.000237672,373,0.022265119,373,0.041275058,373,0.060264874,373,0.0824598,373,0.097140871
372,0.038555529,372,-0.000906253,372,0.021759642,372,0.040762417,372,0.059947345,372,0.082409225,372,0.097444236
371,0.037489008,371,0.000177821,371,0.023151983,371,0.042396221,371,0.061187353,371,0.084197715,371,0.099007525
370,0.037448939,370,0.000180256,370,0.023327114,370,0.042505603,370,0.061507013,370,0.084561124,370,0.099577248
369,0.037160315,369,0.000369654,369,0.023817329,369,0.043246817,369,0.062921979,369,0.085434496,369,0.101149559
368,0.041784231,368,-5.33E-05,368,0.023162603,368,0.043313108,368,0.061889231,368,0.086162321,368,0.101170175
367,0.037818853,367,-0.000299346,367,0.023095906,367,0.043009616,367,0.06198715,367,0.086208694,367,0.10133297
366,0.037743032,366,-0.000165483,366,0.023392402,366,0.04363722,366,0.062470693,366,0.087001063,366,0.102543615
365,0.037599504,365,-0.000130911,365,0.023914034,365,0.04418261,365,0.062902197,365,0.087908074,365,0.103406519
364,0.037523665,364,-0.000144006,364,0.024189275,364,0.044433557,364,0.063370615,364,0.088557675,364,0.104021646
363,0.037921436,363,-0.000321799,363,0.024000799,363,0.044537112,363,0.063440315,363,0.088690057,363,0.104537204
362,0.037956465,362,-0.000262508,362,0.02399407,362,0.044759337,362,0.063643359,362,0.089135244,362,0.105325058
361,0.037775081,361,-5.30E-05,361,0.0249543,361,0.046215463,361,0.065645956,361,0.090845816,361,0.107110515
360,0.037372816,360,-7.61E-05,360,0.023888625,360,0.045316055,360,0.06451565,360,0.090305366,360,0.106440119
359,0.039057896,359,-0.000743171,359,0.022076797,359,0.044100139,359,0.063426957,359,0.089633666,359,0.105829254
358,0.037417535,358,-0.000255989,358,0.024361348,358,0.04635179,358,0.065944389,358,0.092499763,358,0.108527422
357,0.037249178,357,-0.000237309,357,0.024888011,357,0.046940375,357,0.067028694,357,0.093479492,357,0.110041335
356,0.03741632,356,-0.00024683,356,0.024836753,356,0.047137544,356,0.067074433,356,0.094289497,356,0.110422939
355,0.037856191,355,-0.000448527,355,0.025879372,355,0.048470899,355,0.068656884,355,0.095667154,355,0.112134099
354,0.038787507,354,-0.001106405,354,0.023643175,354,0.04649369,354,0.066506296,354,0.093960404,354,0.111147821
353,0.038002573,353,0.001413939,353,0.025150567,353,0.04833984,353,0.068889558,353,0.096707106,353,0.113600165
352,0.037971579,352,-0.000146438,352,0.02549151,352,0.049148507,352,0.069626406,352,0.09734495,352,0.114733264
351,0.038765937,351,-0.000251384,351,0.025444407,351,0.049570978,351,0.07030198,351,0.098228209,351,0.115561806
350,0.039146777,350,-0.000411495,350,0.027609725,350,0.051773489,350,0.072003894,350,0.101084806,350,0.11830055
349,0.040673971,349,-0.000257075,349,0.024659311,349,0.049122855,349,0.06974791,349,0.099255353,349,0.116869576
348,0.048973199,348,-0.000143592,348,0.025486872,348,0.050823074,348,0.07344415,348,0.101681113,348,0.120028622
347,0.049428504,347,0.000385639,347,0.026307484,347,0.051217437,347,0.074313976,347,0.103283927,347,0.121424906
346,0.050445583,346,-0.00028936,346,0.026527395,346,0.051985763,346,0.075367436,346,0.104567498,346,0.123219416
345,0.050913844,345,0.000157363,345,0.027345486,345,0.053028774,345,0.076266833,345,0.106039926,345,0.12499693
344,0.052086554,344,-0.000318436,344,0.027297961,344,0.053577572,344,0.077054143,344,0.10706427,344,0.12610583
343,0.053156722,343,-0.000975219,343,0.027179942,343,0.053892732,343,0.077974856,343,0.108400382,343,0.127586708
342,0.054408621,342,-0.001220412,342,0.027508637,342,0.054363057,342,0.078792118,342,0.109207004,342,0.128760561
341,0.055225916,341,-9.09E-05,341,0.028397579,341,0.055863604,341,0.080375724,341,0.111494526,341,0.13080661
340,0.056242213,340,-0.000150785,340,0.029076193,340,0.056456268,340,0.080898337,340,0.112786457,340,0.133076921
339,0.05787475,339,-0.000166674,339,0.028857339,339,0.057624195,339,0.081156231,339,0.113608703,339,0.134591863
338,0.059352633,338,-0.000373581,338,0.029299809,338,0.05747309,338,0.082577527,338,0.115444891,338,0.136425048
337,0.060305439,337,-7.30E-05,337,0.029178422,337,0.058963921,337,0.084135748,337,0.117410727,337,0.138214395
336,0.061452467,336,-0.000120457,336,0.030096814,336,0.060208194,336,0.085280113,336,0.118842065,336,0.140417799
335,0.06238094,335,0.000275281,335,0.030497754,335,0.060985219,335,0.086394742,335,0.121137656,335,0.142659828
334,0.064139701,334,-0.000372236,334,0.030554684,334,0.06161299,334,0.086811207,334,0.122395739,334,0.143940598
333,0.065863431,333,-7.21E-05,333,0.030464238,333,0.061832041,333,0.087777674,333,0.123236947,333,0.14470838
332,0.06697312,332,-4.11E-05,332,0.031064419,332,0.063213333,332,0.089703389,332,0.125636146,332,0.14756006
331,0.06861984,331,-8.92E-05,331,0.031264134,331,0.063839115,331,0.090585582,331,0.127542615,331,0.149333403
330,0.069746658,330,0.000844055,330,0.032203652,330,0.065403305,330,0.092622742,330,0.129479036,330,0.152356893
329,0.07148423,329,0.000174481,329,0.032624904,329,0.065734275,329,0.093450859,329,0.131218433,329,0.154276058
328,0.073290408,328,-4.72E-05,328,0.032825757,328,0.066667646,328,0.094365895,328,0.132883012,328,0.156028956
327,0.075148746,327,-0.00026613,327,0.033514604,327,0.067587413,327,0.095537342,327,0.134766698,327,0.15755333
326,0.077093929,326,-8.68E-05,326,0.033960223,326,0.068084441,326,0.097407721,326,0.13598156,326,0.160061389
325,0.079031929,325,-0.000122527,325,0.034200005,325,0.069112673,325,0.098232783,325,0.138766214,325,0.162299216
324,0.081491597,324,0.000245909,324,0.034411594,324,0.06980025,324,0.099768959,324,0.139573291,324,0.163796663
323,0.083507776,323,0.000306184,323,0.035744023,323,0.070899725,323,0.101200603,323,0.141429171,323,0.166482776
322,0.086549431,322,-0.000415323,322,0.035956111,322,0.071824946,322,0.101937771,322,0.143130839,322,0.168432415
321,0.089258768,321,0.000144701,321,0.036577791,321,0.072562627,321,0.103061289,321,0.14491801,321,0.170321584
320,0.092349052,320,0.000238993,320,0.036772478,320,0.073116623,320,0.104065135,320,0.146372721,320,0.171782181
319,0.095174327,319,0.000629122,319,0.037430853,319,0.074457884,319,0.105604783,319,0.148580432,319,0.17482397
318,0.09911532,318,-5.42E-05,318,0.037079167,318,0.075505681,318,0.106408835,318,0.149974749,318,0.176667467
317,0.102825977,317,9.08E-05,317,0.03744081,317,0.076137535,317,0.107653201,317,0.151829615,317,0.178481177
316,0.107068941,316,0.000263677,316,0.038181819,316,0.076659031,316,0.108734585,316,0.154141843,316,0.180724487
315,0.111305967,315,0.000684343,315,0.039062653,315,0.078110367,315,0.11079786,315,0.156012595,315,0.18298161
314,0.117470026,314,-0.000838052,314,0.038624957,314,0.077915013,314,0.111166485,314,0.156822875,314,0.18377994
313,0.122820333,313,-0.000243312,313,0.038781617,313,0.078811295,313,0.112578824,313,0.158164874,313,0.186570525
312,0.128934562,312,-0.000573203,312,0.039366402,312,0.080252454,312,0.113503836,312,0.160512894,312,0.188353658
311,0.135728747,311,-0.000347251,311,0.039567959,311,0.080656834,311,0.114891842,311,0.162470475,311,0.190403253
310,0.142877176,310,-9.26E-05,310,0.039948795,310,0.08145503,310,0.11628332,310,0.164331496,310,0.19306308
309,0.151770622,309,-0.000769271,309,0.03996554,309,0.082357436,309,0.117093913,309,0.165172041,309,0.194252506
308,0.162579954,308,-0.00053856,308,0.041089553,308,0.082865335,308,0.117840558,308,0.167221263,308,0.196437448
307,0.171099573,307,-0.000361528,307,0.041868374,307,0.084236838,307,0.119414575,307,0.168515772,307,0.198056817
306,0.182730079,306,-0.000522737,306,0.041558482,306,0.084929064,306,0.119580567,306,0.169894502,306,0.199879184
305,0.194566235,305,-0.000168174,305,0.042193174,305,0.085671328,305,0.121633932,305,0.172109127,305,0.201824233
304,0.208769724,304,-0.000702494,304,0.042327043,304,0.086044148,304,0.122330241,304,0.173352748,304,0.203105897
303,0.22359103,303,-9.51E-05,303,0.043121096,303,0.086668812,303,0.123576134,303,0.175579906,303,0.205739856
302,0.240839601,302,-0.000882746,302,0.042949889,302,0.087294504,302,0.124023028,302,0.176164866,302,0.206641659
301,0.259008586,301,-0.000215628,301,0.043122269,301,0.088206857,301,0.124875404,301,0.178220794,301,0.208270237
300,0.279067725,300,-0.000510223,300,0.043549359,300,0.089342996,300,0.12699081,300,0.179597363,300,0.210683942
299,0.301407009,299,-0.000668482,299,0.044090372,299,0.089341469,299,0.127717301,299,0.18118386,299,0.212462828
298,0.325813532,298,-0.000562138,298,0.044670273,298,0.090497479,298,0.128539309,298,0.18272759,298,0.213623539
297,0.352912813,297,-0.001173223,297,0.044074126,297,0.091036767,297,0.129481405,297,0.184490308,297,0.215707973
296,0.38239333,296,-0.000634105,296,0.044824854,296,0.091986075,296,0.130523831,296,0.18570143,296,0.217759088
295,0.415521205,295,-0.000726632,295,0.044939127,295,0.091448419,295,0.130543888,295,0.187057465,295,0.218865678
294,0.451300532,294,-0.001012927,294,0.045094293,294,0.093112141,294,0.131913975,294,0.188501626,294,0.220263183
293,0.490773976,293,-0.000871689,293,0.045727704,293,0.093604326,293,0.13275452,293,0.190023467,293,0.221692279
292,0.535699308,292,-0.001364685,292,0.045953158,292,0.093906514,292,0.13272363,292,0.191646576,292,0.223345235
291,0.58637625,291,-0.001781077,291,0.045521803,291,0.09437345,291,0.133594304,291,0.19258517,291,0.225328982
290,0.646162391,290,-0.00176334,290,0.045453649,290,0.094437599,290,0.134369731,290,0.192353442,290,0.22548236
289,0.717969537,289,-0.002270158,289,0.045450173,289,0.094197333,289,0.134780541,289,0.193571121,289,0.226533637
288,0.808392227,288,-0.001994947,288,0.044097848,288,0.094154626,288,0.133416176,288,0.193610579,288,0.227534369
287,0.926680028,287,-0.002623884,287,0.044779308,287,0.095190831,287,0.134869263,287,0.195458874,287,0.229009122
286,1.094029307,286,-0.004750711,286,0.041002687,286,0.091284849,286,0.132031873,286,0.192833766,286,0.226559207
285,1.32710588,285,-0.007446809,285,0.039398402,285,0.08740925,285,0.127689645,285,0.189427197,285,0.224714816
284,1.65151,284,-0.009958371,284,0.036038313,284,0.08418791,284,0.122805044,284,0.186490849,284,0.221917376
283,2.08232975,283,-0.018615704,283,0.028274426,283,0.07641416,283,0.114750221,283,0.177733555,283,0.215353489
282,2.598826647,282,-0.015685413,282,0.02299821,282,0.067961581,282,0.106523246,282,0.161276236,282,0.193165854
281,3.002511263,281,-0.009481169,281,0.026574699,281,0.068003446,281,0.102874488,281,0.150838926,281,0.187242001
280,3.149885893,280,0.003260092,280,0.032658421,280,0.07216616,280,0.102067649,280,0.147394434,280,0.174247727
279,3.196463346,279,-0.010411849,279,0.022623029,279,0.066064022,279,0.093860015,279,0.140825734,279,0.161645576
278,3.221600771,278,0.001696017,278,0.026025951,278,0.074157931,278,0.091016755,278,0.154238433,278,0.165785879
277,3.259276628,277,-0.01617231,277,0.020216547,277,0.056107167,277,0.091006957,277,0.128568053,277,0.142365336
276,3.286170959,276,-0.001580049,276,0.018541601,276,0.071404837,276,0.082411729,276,0.121675484,276,0.155497715
275,3.310104847,275,0.000835289,275,0.01959043,275,0.061093215,275,0.084784634,275,0.123390071,275,0.143370032
274,3.337016821,274,0.004273504,274,-0.000391995,274,0.056328349,274,0.083806753,274,0.113867737,274,0.137082458
273,3.34371686,273,-0.000801621,273,0.012301271,273,0.064756632,273,0.088278636,273,0.117593199,273,0.142997548
272,3.360386372,272,0.019377576,272,0.004159227,272,0.057544515,272,0.078531556,272,0.117820047,272,0.127880842
271,3.375282049,271,-0.002268355,271,0.000439844,271,0.063281931,271,0.075371496,271,0.106845617,271,0.131797135
270,3.391372442,270,-0.00524664,270,-0.009757399,270,0.049309421,270,0.07200817,270,0.108216554,270,0.128757402
269,3.399764299,269,0.001314458,269,-0.011309922,269,0.054883853,269,0.080105685,269,0.113284677,269,0.138643831
268,3.400451899,268,0.015677609,268,-0.001264138,268,0.062158298,268,0.080776326,268,0.126756862,268,0.130849019
267,3.420896292,267,-0.004323676,267,-0.016722631,267,0.05240472,267,0.073630758,267,0.097007319,267,0.117155276
266,3.435253143,266,-0.002843409,266,-0.015216365,266,0.036352508,266,0.071867183,266,0.089068152,266,0.095025301
265,3.428631306,265,0.007508695,265,-0.01750459,265,0.049954157,265,0.072696857,265,0.104034968,265,0.125540152
264,3.439105511,264,0.006736143,264,-0.017215682,264,0.043645918,264,0.081187934,264,0.102746539,264,0.119013146
263,3.442986012,263,0.010239949,263,-0.025374165,263,0.04861008,263,0.06756942,263,0.100144923,263,0.116303995
262,3.462324381,262,-0.018399246,262,-0.021623354,262,0.048840713,262,0.051307008,262,0.073628761,262,0.09405902
261,3.454075575,261,0.008217776,261,-0.01920435,261,0.05884403,261,0.066248059,261,0.097669549,261,0.114934407
260,3.470355272,260,0.001648982,260,-0.026192386,260,0.048760366,260,0.053354394,260,0.090718165,260,0.099566996
259,3.473896503,259,0.00063104,259,-0.030597774,259,0.032010023,259,0.059365362,259,0.083142892,259,0.087975018
258,3.483080626,258,-0.003539217,258,-0.034409724,258,0.028261276,258,0.053279761,258,0.065333799,258,0.093845047
257,3.469527245,257,0.017140593,257,-0.00953805,257,0.051521532,257,0.066536799,257,0.096015662,257,0.108421184
256,3.486178398,256,-0.000461664,256,-0.022532038,256,0.04149884,256,0.049933799,256,0.070386842,256,0.098682702
255,3.49963665,255,-0.000423185,255,-0.04277844,255,0.033606637,255,0.052819118,255,0.072523497,255,0.075424992
254,3.501067162,254,-0.009346915,254,-0.028670358,254,0.026366921,254,0.03773202,254,0.070531763,254,0.081347719
253,3.494760752,253,0.007264748,253,-0.021848353,253,0.045981817,253,0.05502307,253,0.090001404,253,0.110009022
252,3.510924816,252,-0.00458922,252,-0.02790899,252,0.041025732,252,0.046158202,252,0.0731631,252,0.092285819
251,3.513997555,251,0.002387464,251,-0.0259271,251,0.030216988,251,0.05827282,251,0.078533888,251,0.091317043
250,3.51675725,250,-0.000923406,250,-0.018037185,250,0.032786116,250,0.05511355,250,0.080318503,250,0.092928417
249,3.518899679,249,0.0015103,249,-0.021249874,249,0.045156643,249,0.047728613,249,0.069615342,249,0.091029041
248,3.528498888,248,-0.003254687,248,-0.025939878,248,0.039299492,248,0.041794263,248,0.055647016,248,0.088880315
247,3.538856506,247,-0.015441259,247,-0.02625053,247,0.030811436,247,0.041697029,247,0.052452359,247,0.070228733
246,3.537038326,246,3.91E-06,246,-0.01241645,246,0.032013591,246,0.062955938,246,0.072125882,246,0.089240454
245,3.53691268,245,0.016139055,245,-0.003910896,245,0.047865674,245,0.060299046,245,0.071072258,245,0.079346545
244,3.542845488,244,0.011040643,244,-0.012573749,244,0.04627455,244,0.052539062,244,0.080250338,244,0.080017723
243,3.548520565,243,0.002694529,243,-0.013499388,243,0.040030453,243,0.05058074,243,0.064024344,243,0.098201431
242,3.566334009,242,-0.003268458,242,-0.022920186,242,0.03842536,242,0.053504601,242,0.063802779,242,0.072623201
241,3.570239067,241,-0.00853915,241,-0.018957064,241,0.033727005,241,0.040047966,241,0.068309322,241,0.074400611
240,3.565469265,240,0.007620696,240,0.00121731,240,0.05858868,240,0.056415118,240,0.069798127,240,0.082542807
239,3.569877863,239,0.009795949,239,-0.016779866,239,0.043226257,239,0.051798396,239,0.071060397,239,0.090366013
238,3.575734138,238,0.005984147,238,-0.003329651,238,0.032103889,238,0.046437051,238,0.069518633,238,0.085916549
237,3.590905905,237,-0.002737853,237,-0.020053843,237,0.035352644,237,0.038964696,237,0.06867335,237,0.075071998
236,3.595295668,236,-0.013585401,236,-0.016757501,236,0.028136313,236,0.050725311,236,0.057174366,236,0.077527404
235,3.600741148,235,0.008914039,235,-0.019842997,235,0.045283876,235,0.030507583,235,0.057938017,235,0.06572482
234,3.613065243,234,-0.0110476,234,-0.022954071,234,0.027568266,234,0.048360441,234,0.052124292,234,0.074026719
233,3.607852459,233,0.003429287,233,-0.01054254,233,0.046319362,233,0.055955172,233,0.056230336,233,0.100259394
232,3.63691473,232,-0.01006679,232,-0.030184316,232,0.02693739,232,0.041659731,232,0.052587442,232,0.056870833
231,3.642604113,231,-0.005045265,231,-0.017500116,231,0.027639298,231,0.043143194,231,0.054322779,231,0.072677515
230,3.644203901,230,0.003575526,230,-0.019784335,230,0.035038501,230,0.057088949,230,0.071651988,230,0.072380513
229,3.661662817,229,0.003063147,229,-0.014748162,229,0.053639341,229,0.041460134,229,0.078982651,229,0.07976567
228,3.669304848,228,-0.0038934,228,-0.006805456,228,0.047285907,228,0.060237933,228,0.06573578,228,0.064455837
227,3.676118374,227,0.013761966,227,-0.00204483,227,0.059041817,227,0.060955849,227,0.097225636,227,0.092057936
226,3.713304281,226,0.006754731,226,-0.023800286,226,0.030634565,226,0.02898586,226,0.064049423,226,0.073916897
225,3.738454103,225,-0.010200719,225,-0.027053822,225,0.014465709,225,0.029666835,225,0.060620997,225,0.073499881
224,3.735476971,224,0.016530616,224,0.001664937,224,0.064793743,224,0.055294443,224,0.079230808,224,0.103049472
223,3.758800268,223,0.000966985,223,-0.005703683,223,0.025616292,223,0.071904175,223,0.060700268,223,0.088734575
222,3.793283939,222,-0.0173331,222,-0.03535717,222,0.022620684,222,0.049282219,222,0.06401021,222,0.079582468
221,3.80142045,221,-0.007639596,221,-0.017096292,221,0.035977453,221,0.052792951,221,0.069535553,221,0.061018165
220,3.812469482,220,0.019574912,220,-0.015911311,220,0.03071988,220,0.04576426,220,0.081975251,220,0.08357656
219,3.843917131,219,0.000554002,219,-0.024253597,219,0.031229002,219,0.051417373,219,0.064989902,219,0.093535393
218,3.846956491,218,0.018621871,218,-0.034361318,218,0.039237265,218,0.064368345,218,0.074632756,218,0.113537125
217,3.845192194,217,0.006665085,217,-0.025523035,217,0.050970081,217,0.076850608,217,0.112859696,217,0.077890359
216,3.867517948,216,-0.012113059,216,-0.031173013,216,0.035291798,216,0.036585364,216,0.07296674,216,0.080352612
215,3.855947733,215,0.023906238,215,0.000509294,215,0.067304991,215,0.055148024,215,0.084805064,215,0.083654165
214,3.860090494,214,-0.00361439,214,-0.020159623,214,0.032563936,214,0.019517455,214,0.051716972,214,0.076934658
213,3.839799881,213,-0.001933513,213,0.000697228,213,0.051737152,213,0.045511052,213,0.072351553,213,0.07671243
212,3.834321499,212,-0.003003802,212,-0.029258657,212,0.036721714,212,0.022081971,212,0.077831984,212,0.076285899
211,3.805388927,211,0.009322807,211,-0.019208362,211,0.052778248,211,0.040208239,211,0.063722223,211,0.066188879
210,3.814782143,210,-0.001409789,210,-0.039973285,210,0.031516019,210,-0.007159023,210,0.032911867,210,0.026610585
209,3.770142794,209,0.012755171,209,-0.034015872,209,0.005294081,209,0.010583119,209,0.063038595,209,0.075168535
208,3.744920969,208,0.024569921,208,-0.027206104,208,0.025592322,208,0.021881832,208,0.050066646,208,0.099592492
207,3.745685101,207,-0.008749211,207,-0.024371184,207,-0.022049174,207,-0.013632215,207,0.038051087,207,0.06913875
206,3.723310232,206,-0.024609489,206,-0.036452487,206,0.004296745,206,0.001743784,206,0.008501301,206,0.036683798
205,3.699188948,205,-0.021810049,205,-0.014797802,205,-0.001989793,205,-0.007753985,205,0.046305336,205,0.052090142
204,3.68070507,204,-0.022642573,204,-0.041168701,204,0.006641402,204,0.009044773,204,0.029590929,204,0.077131987
203,3.666930914,203,-0.002669115,203,-0.06419377,203,0.012409161,203,-0.008663605,203,0.009654137,203,0.059658527
202,3.629767418,202,0.012326064,202,-0.005827625,202,0.038095139,202,-0.002628207,202,0.029560225,202,0.060916681
201,3.615019321,201,0.029589625,201,-0.017139195,201,0.000261475,201,0.005011098,201,0.022844302,201,0.052131411
200,3.630856991,200,-0.021657046,200,-0.058482248,200,-0.032209367,200,-0.009652194,200,0.012196416,200,0.023456331
