800,-0.000437718,800,-0.000110674,800,-0.000138416,800,0.000888694,800,0.000517121,800,0.000717686
799,-0.000269182,799,-7.75E-05,799,-0.000305968,799,0.000764438,799,0.000574686,799,0.000766564
798,-0.000470714,798,-0.000174643,798,-0.000174643,798,0.000719682,798,0.000483923,798,0.000621293
797,-0.0003577,797,-0.000242536,797,-0.000210868,797,0.000732751,797,0.000714211,797,0.00075531
796,-0.00046818,796,-0.000249055,796,-0.000494348,796,0.000690798,796,0.000467649,796,0.000474412
795,-0.000439735,795,-0.00030514,795,-9.27E-05,795,0.000695076,795,0.000669876,795,0.000728006
794,-0.000404513,794,-0.000154408,794,-0.000235136,794,0.000596071,794,0.000422509,794,0.000561493
793,-0.000280306,793,-0.000137019,793,-0.000235343,793,0.000580907,793,0.000597004,793,0.0008349
792,-0.000358269,792,-0.000147059,792,-0.000300898,792,0.000582099,792,0.000680402,792,0.000728239
791,-0.000262715,791,-0.0001291,791,-0.000285532,791,0.0008162,791,0.000585158,791,0.000864986
790,-0.000344044,790,-0.000193325,790,-0.000291585,790,0.000699588,790,0.000632259,790,0.000713667
789,-0.000296448,789,-9.72E-05,789,-0.000246623,789,0.000723468,789,0.000522408,789,0.000903998
788,-0.000449872,788,-0.000278702,788,-0.00042546,788,0.000641747,788,0.000651495,788,0.000734332
787,-0.000571238,787,-0.000218474,787,-0.000777488,787,0.000609732,787,0.000363332,787,0.00065948
786,-0.00052765,786,-0.000509137,786,-0.000581992,786,0.000606414,786,0.00042212,786,0.000639829
785,-0.000546471,785,-0.000309227,785,-0.00036039,785,0.000682891,785,0.000477937,785,0.000624067
784,-0.000233532,784,-0.000276012,784,-0.000355941,784,0.000760859,784,0.0005045,784,0.000456117
783,-0.000141418,783,-0.00018075,783,-0.000276529,783,0.000643432,783,0.000714393,783,0.000672728
782,-0.000516584,782,-0.000132309,782,-0.000332973,782,0.000638195,782,0.000394707,782,0.000636666
781,-0.000277875,781,-0.000243984,781,-1.39E-05,781,0.000750357,781,0.000473972,781,0.00069658
780,-0.000240828,780,-0.00018991,780,-0.000217336,780,0.000852381,780,0.000530805,780,0.000804737
779,-0.000189703,779,-0.000196637,779,-0.000196482,779,0.00062176,779,0.000475112,779,0.000679728
778,-0.000239948,778,-0.000316367,778,-0.000202743,778,0.000623523,778,0.000407714,778,0.000436346
777,-0.000265095,777,-0.00010467,777,-0.000169365,777,0.000704047,777,0.000642421,777,0.000717608
776,-0.000143022,776,-7.06E-05,776,-0.000169365,776,0.000682735,776,0.000649343,776,0.000807953
775,-0.000129462,775,4.17E-06,775,-0.000101151,775,0.000884414,775,0.000497943,775,0.00071683
774,-0.000280099,774,-0.000133448,774,-0.00022872,774,0.000883765,774,0.000568128,774,0.000725387
773,-0.00033049,773,-0.000208901,773,-0.000178214,773,0.00076296,773,0.000519298,773,0.00073664
772,-0.000377047,772,-0.000128272,772,-0.000213145,772,0.000711981,772,0.00068818,772,0.000641721
771,-0.000354493,771,-0.000262922,771,-0.000168071,771,0.000488277,771,0.000532749,771,0.000670602
770,-0.000429236,770,-0.000219872,770,-0.000372236,770,0.000334912,770,0.000354446,770,0.000476434
769,-0.000337474,769,-0.000183234,769,-0.000345906,769,0.000620542,769,0.000543868,769,0.00066272
768,-0.00045732,768,-0.000102652,768,-0.000325575,768,0.000673531,768,0.000591249,768,0.000554754
767,-0.000426391,767,-0.000283876,767,-0.000461974,767,0.000591405,767,0.00061375,767,0.000521035
766,-0.000293344,766,0.000185098,766,-0.000313314,766,0.000830932,766,0.000611857,766,0.000690773
765,-0.000555416,765,-0.000209884,765,-0.00039484,765,0.00049574,765,0.000502815,765,0.00039121
764,-0.000361114,764,-0.000151355,764,-0.000415168,764,0.000601022,764,0.000433962,764,0.000482083
763,-0.000459595,763,-0.000154046,763,-0.000427736,763,0.000566547,763,0.000517251,763,0.000348928
762,-0.00023229,762,6.44E-05,762,-0.000273994,762,0.000695699,762,0.000461507,762,0.000676305
761,-0.00034963,761,-0.000179353,761,-0.000257748,761,0.000714004,761,0.000564577,761,0.000790863
760,-0.000338094,760,-1.27E-05,760,-0.000153632,760,0.000837026,760,0.000610846,760,0.000657639
759,-0.000376271,759,-3.27E-05,759,-0.000132361,759,0.000757774,759,0.000546771,759,0.000670316
758,-0.000381754,758,-0.000133706,758,-0.000278133,758,0.00063664,758,0.000352606,758,0.000584018
757,-0.000362666,757,3.24E-05,757,-7.71E-05,757,0.000910457,757,0.000729406,757,0.00070511
756,-0.000351079,756,-0.000106999,756,-0.000213558,756,0.000759615,756,0.00018256,756,0.000592416
755,-0.000493313,755,-0.000333025,755,-0.000321281,755,0.000828753,755,0.000385743,755,0.000658624
754,-0.000316367,754,-0.000178421,754,-0.00021806,754,0.000639647,754,0.00050494,754,0.000728524
753,-0.000204968,753,8.15E-05,753,-0.000313625,753,0.000947164,753,0.000698784,753,0.000766746
752,-0.00036546,752,-8.44E-05,752,-0.000260904,752,0.000732336,752,0.000378281,752,0.000619064
751,-0.000246778,751,-7.26E-05,751,-0.000223338,751,0.000934115,751,0.000510849,751,0.000516836
750,-0.000345026,750,-5.34E-05,750,-0.000230841,750,0.000746597,750,0.000434377,750,0.000642473
749,-0.000371977,749,-8.52E-05,749,-0.00026049,749,0.000742993,749,0.000491723,749,0.000414969
748,-0.000262663,748,-0.000179767,748,-0.000309796,748,0.000866854,748,0.000532542,748,0.00055294
747,-0.000406013,747,1.38E-05,747,-0.000255368,747,0.000796024,747,0.000538218,747,0.000571887
746,-0.000178473,746,3.62E-05,746,-0.000124856,746,0.001072355,746,0.000642525,746,0.000752847
745,-0.000308348,745,-6.69E-05,745,-0.000251539,745,0.00080383,745,0.000528525,745,0.000627981
744,-0.00045101,744,-9.42E-05,744,-0.00016657,744,0.000680583,744,0.000405926,744,0.000541121
743,-0.00051617,743,-7.39E-05,743,-0.000179974,743,0.000692432,743,0.00059563,743,0.000643795
742,-0.000246468,742,-3.20E-05,742,-0.000246468,742,0.000671639,742,0.000546019,742,0.000751783
741,-0.000437253,741,0.000159953,741,-2.60E-05,741,0.000822139,741,0.000353202,741,0.000483171
740,-0.000455251,740,0.000137735,740,-3.53E-05,740,0.000896813,740,0.000443057,740,0.000719968
739,-0.000356511,739,0.000123053,739,-0.000106275,739,0.000922675,739,0.000404475,739,0.000610535
738,-0.000208694,738,-4.06E-05,738,-0.000120301,738,0.000990672,738,0.000301858,738,0.00041712
737,-0.000310779,737,0.000216305,737,2.58E-05,737,0.000937929,737,0.000524507,737,0.000567066
736,-0.00038434,736,8.32E-05,736,-9.30E-05,736,0.000897902,736,0.000286419,736,0.000647269
735,-0.000222304,735,-1.56E-05,735,-0.000128427,735,0.00101475,735,0.000336519,735,0.000532931
734,-0.000444545,734,-8.32E-05,734,-0.000263232,734,0.000844626,734,0.000222909,734,0.000358902
733,-0.000254592,733,-3.45E-05,733,-0.000260283,733,0.000924439,733,0.000499965,733,0.000683072
732,-0.000563586,732,-0.000319005,732,-0.000439321,732,0.000753962,732,0.000122432,732,0.000418052
731,-0.000422874,731,-0.000209626,731,-0.000419254,731,0.000820168,731,0.000312012,731,0.000597341
730,-0.00031378,730,-0.000139399,730,-0.000157565,730,0.000960655,730,0.000453396,730,0.000617975
729,-0.00038703,729,5.80E-06,729,-0.000225408,729,0.000913959,729,0.000472184,729,0.000693676
728,-0.000435805,728,-0.000109484,728,-0.000239379,728,0.000856634,728,0.000297091,728,0.000509346
727,-0.000426288,727,6.99E-05,727,-0.000275598,727,0.001042306,727,0.000449639,727,0.000769209
726,-0.000229858,726,9.92E-05,726,-0.000262197,726,0.000899251,726,0.000483301,726,0.000781501
725,-0.000395978,725,0.000104307,725,-0.000178318,725,0.000935438,725,0.000527125,725,0.000530857
724,-0.000331524,724,0.000253705,724,-7.13E-05,724,0.001055514,724,0.000476693,724,0.000534745
723,-0.000129152,723,0.000196493,723,-2.33E-05,723,0.001038777,723,0.000560715,723,0.000634903
722,-0.000242122,722,0.00016363,722,-6.42E-05,722,0.001056915,722,0.000678276,722,0.000696995
721,-0.000112848,721,0.000266604,721,4.34E-05,721,0.001151172,721,0.000506236,721,0.000950251
720,-0.000162585,720,0.000143225,720,9.34E-05,720,0.000844833,720,0.000416964,720,0.000755154
719,-0.000247969,719,0.000198358,719,1.11E-06,719,0.00085666,719,0.000409321,719,0.000720693
718,-0.000199794,718,4.94E-05,718,0.000139988,718,0.000931288,718,0.000355741,718,0.000634929
717,-0.000147887,717,0.000159383,717,0.000244018,717,0.001058809,717,0.000682217,717,0.000570487
716,-0.000414444,716,0.00022278,716,6.13E-05,716,0.000995316,716,0.000495559,716,0.000603588
715,-0.000441701,715,0.000238553,715,0.000139289,715,0.000768639,715,0.000302505,715,0.000587621
714,-0.000272028,714,0.000212602,714,0.000341752,714,0.000993241,714,0.000546304,714,0.000668813
713,-0.000449976,713,0.000209986,713,0.000175646,713,0.00099241,713,0.000291755,713,0.000659091
712,-6.72E-05,712,0.000601074,712,0.000328229,712,0.001198853,712,0.000453059,712,0.000976999
711,-5.49E-05,711,0.000453733,711,0.000386261,711,0.00122585,711,0.00054589,711,0.000806812
710,-0.000457423,710,0.000395821,710,0.000198176,710,0.001024142,710,0.000192039,710,0.000735188
709,-0.000329662,709,0.000391728,709,5.59E-05,709,0.001016229,709,0.000236559,709,0.000721212
708,-0.000280358,708,0.000532516,708,5.26E-05,708,0.001000869,708,0.00028945,708,0.000835029
707,-0.000395151,707,0.000196364,707,-5.65E-05,707,0.0008854,707,0.00022221,707,0.000775044
706,-0.000324799,706,0.000236067,706,-4.49E-05,706,0.000988181,706,0.000234772,706,0.000769339
705,-0.000142867,705,0.000248317,705,-1.48E-05,705,0.001084344,705,0.000295796,705,0.000709
704,-0.000276685,704,0.000395044,704,-0.000124183,704,0.000965558,704,0.000362373,704,0.000640373
703,-0.00014649,703,0.000389344,703,-7.77E-06,703,0.001223643,703,0.000499731,703,0.000888979
702,-0.00036158,702,0.000205583,702,-0.000159377,702,0.001049182,702,0.000412533,702,0.000790915
701,-0.00034632,701,0.000154127,701,-0.000172936,701,0.00120324,701,0.000282715,701,0.000648124
700,-0.000409064,700,0.000338928,700,0.000139341,700,0.001114214,700,0.000338332,700,0.000727202
699,-0.000373426,699,0.000305484,699,0.000114172,699,0.001004734,699,0.00045591,699,0.000816071
698,-0.000235602,698,0.000429505,698,7.34E-05,698,0.001064233,698,0.000520127,698,0.000838946
697,-0.000405754,697,0.000229669,697,0.000341726,697,0.001043422,697,0.000220397,697,0.000859436
696,-0.000421892,696,0.000151537,696,0.000431008,696,0.001059691,696,0.000205454,696,0.000833344
695,-0.000350872,695,0.00033898,695,0.000251581,695,0.001042046,695,0.000415669,695,0.000873416
694,-0.000277771,694,0.000323773,694,0.000484519,694,0.001011558,694,0.000225603,694,0.000881716
693,-0.000420805,693,0.000520283,693,0.000458605,693,0.00100035,693,5.95E-05,693,0.000881561
692,-0.000365925,692,0.000344783,692,0.000226225,692,0.001107285,692,0.000123804,692,0.000873001
691,-0.000197103,691,0.000302505,691,0.000213586,691,0.001117692,691,0.000121966,691,0.000642628
690,-0.000252988,690,0.00050989,690,0.000403905,690,0.001040334,690,0.000273986,690,0.000779064
689,-0.000273063,689,0.000383592,689,0.000231974,689,0.001080477,689,0.000353876,689,0.000744367
688,-0.000186856,688,0.000591742,688,0.000238527,688,0.001272735,688,0.000425308,688,0.000779271
687,-0.000213507,687,0.000612583,687,0.000234202,687,0.001256405,687,0.000555169,687,0.000844159
686,-0.000123407,686,0.000603251,686,8.27E-05,686,0.001074638,686,0.000325664,686,0.000911339
685,-2.98E-05,685,0.000705344,685,0.000376416,685,0.001398175,685,0.000822451,685,0.001221203
684,-0.00020295,684,0.000695984,684,0.000332089,684,0.001157998,684,0.000586817,684,0.001214246
683,-0.000433167,683,0.000618597,683,0.000122743,683,0.00108751,683,0.000290926,683,0.000793819
682,-0.000565292,682,0.000444975,682,7.11E-05,682,0.001033587,682,0.000214363,682,0.000936606
681,-0.000378495,681,0.000374343,681,0.000321467,681,0.00093313,681,0.000282119,681,0.001200203
680,-0.000540628,680,0.000572716,680,0.00033543,680,0.000971084,680,0.00020245,680,0.000902831
679,-0.000485867,679,0.000514555,679,0.000425048,679,0.00110866,679,8.23E-05,679,0.000726035
678,-0.00048204,678,0.000373799,678,0.000292584,678,0.00104407,678,0.00011847,678,0.000797476
677,-0.000363959,677,0.00032512,677,0.000513648,677,0.001100434,677,0.000253394,677,0.000971084
676,-0.000252056,676,0.000378618,676,0.000565199,676,0.001179463,676,0.000237905,676,0.001023079
675,-0.000348803,675,0.000290823,675,0.000547445,675,0.001131447,675,6.68E-05,675,0.000900289
674,-0.000322213,674,0.000318152,674,0.000484363,674,0.001133809,674,0.000217989,674,0.000949655
673,-0.000340319,673,0.000263936,673,0.000289864,673,0.001164409,673,0.000178754,673,0.000828208
672,-0.000317039,672,0.000405823,672,0.00050748,672,0.000831087,672,0.000242567,672,0.000886152
671,-0.000221217,671,0.000514167,671,0.000573934,671,0.001165214,671,8.15E-05,671,0.001048118
670,-0.000242225,670,0.000321675,670,0.000419529,670,0.00123478,670,0.000285409,670,0.00102928
669,-0.000128117,669,0.000462051,669,0.000546434,669,0.001178295,669,0.000282016,669,0.001003749
668,-0.000141521,668,0.000585676,668,0.000447825,668,0.001060392,668,0.000129967,668,0.001169341
667,-0.000317505,667,0.000590316,667,0.000432744,667,0.001394331,667,0.000255622,667,0.001122701
666,-0.000294741,666,0.000540499,666,0.000484804,666,0.001120572,666,0.000238579,666,0.001126827
665,-0.00031259,665,0.000786766,665,0.000380146,665,0.001134354,665,0.000153013,665,0.001101108
664,-0.000324127,664,0.000748438,664,0.000559912,664,0.001235066,664,-3.00E-05,664,0.001189119
663,-0.000307158,663,0.000838868,663,0.000510461,663,0.001185459,663,0.000134317,663,0.001179308
662,-0.00052646,662,0.000684317,662,0.000524482,662,0.0012333,662,2.39E-05,662,0.001046016
661,-0.000345026,661,0.000856946,661,0.000742059,661,0.001415367,661,0.000131132,661,0.001072796
660,-0.000271873,660,0.000790318,660,0.000721705,660,0.001185615,660,1.00E-05,660,0.001092415
659,-8.84E-05,659,0.000800977,659,0.000899355,659,0.001612943,659,0.000338487,659,0.001291895
658,-0.000169054,658,0.000911132,658,0.000892714,658,0.001423652,658,0.000182042,658,0.001251135
657,-0.000142349,657,0.000677394,657,0.000948928,657,0.001160074,657,0.000294061,657,0.001215986
656,-6.76E-05,656,0.000739855,656,0.000848568,656,0.001333853,656,1.98E-05,656,0.001337982
655,-0.000229444,655,0.000637392,655,0.000867606,655,0.001061741,655,-2.20E-05,655,0.001219568
654,-0.000216974,654,0.00074945,654,0.000729535,654,0.00128042,654,0.000158969,654,0.001250512
653,-0.00030395,653,0.000619582,653,0.000645039,653,0.001133835,653,-2.96E-05,653,0.001166563
652,-0.000507638,652,0.000341078,652,0.000535315,652,0.001064051,652,-9.12E-05,652,0.001181644
651,-0.000363132,651,0.000650147,651,0.0005997,651,0.001204175,651,-3.43E-05,651,0.001084681
650,-0.000489383,650,0.000595786,650,0.000525466,650,0.001188367,650,-7.87E-05,650,0.001090832
649,-0.00048385,649,0.000527073,649,0.000615124,649,0.001185901,649,-5.56E-05,649,0.000938136
648,-0.000531476,648,0.000457257,648,0.000549855,648,0.001308564,648,-2.87E-05,648,0.001100252
647,-0.000608618,647,0.000523108,647,0.000629926,647,0.001116576,647,-0.000250763,647,0.000955596
646,-0.000460991,646,0.000705811,646,0.000694713,646,0.00121435,646,1.59E-05,646,0.001022793
645,-0.000543369,645,0.000617949,645,0.000652506,645,0.001228031,645,-3.18E-05,645,0.001012985
644,-0.000530235,644,0.000690643,644,0.000792678,644,0.00133214,644,0.000193774,644,0.001147616
643,-0.000520048,643,0.000806449,643,0.00088597,643,0.001188626,643,-0.000124545,643,0.00090903
642,-0.000354079,642,0.000931807,642,0.000871393,642,0.001212741,642,-0.000133085,642,0.001139882
641,-0.000496571,641,0.000890873,641,0.000978063,641,0.001243529,641,-2.27E-05,641,0.001285067
640,-0.000531683,640,0.000998871,640,0.000872897,640,0.001183876,640,2.17E-05,640,0.001187744
639,-0.000264526,639,0.001033198,639,0.001144164,639,0.001372752,639,3.42E-05,639,0.001147253
638,-0.000205486,638,0.001006888,638,0.000982266,638,0.001265439,638,3.40E-05,638,0.001110659
637,-0.000219354,637,0.000800588,637,0.000985172,637,0.001411497,637,1.21E-05,637,0.001182656
636,-0.000233273,636,0.001033795,636,0.000997029,636,0.001393552,636,0.000108061,636,0.001062105
635,-8.93E-05,635,0.000943325,635,0.000874946,635,0.001439183,635,-0.000178525,635,0.001238882
634,-0.000167657,634,0.000903064,634,0.000936761,634,0.001341825,634,-9.35E-05,634,0.0011818
633,-1.84E-05,633,0.001001128,633,0.000816434,633,0.001581532,633,-0.000157462,633,0.001215934
632,-2.92E-05,632,0.000971265,632,0.0010271,632,0.001406355,632,-3.48E-05,632,0.001235663
631,-0.000360649,631,0.000624274,631,0.000816434,631,0.001271073,631,-5.99E-05,631,0.001128151
630,-0.000188875,630,0.000846467,630,0.000882053,630,0.001202799,630,0.000193359,630,0.001245709
629,-6.21E-05,629,0.000890613,629,0.001024116,629,0.001361845,629,0.000168265,629,0.001185096
628,-0.000321954,628,0.000949188,628,0.001048559,628,0.001266997,628,3.74E-05,628,0.001413263
627,-0.000439477,627,0.000908745,627,0.001030551,627,0.001511417,627,-7.25E-07,627,0.001254743
626,-0.00053794,626,0.000673713,626,0.000991009,626,0.00140968,626,-0.000248331,626,0.001227278
625,-0.000753456,625,0.00083656,625,0.001093972,625,0.001199191,625,-0.000294431,625,0.001046509
624,-0.000535354,624,0.000729146,624,0.000953572,624,0.001324558,624,-0.000283462,624,0.001004605
623,-0.00078679,623,0.000690254,623,0.001079128,623,0.001219646,623,-0.000102393,623,0.001087821
622,-0.000732524,622,0.000578678,622,0.000995394,622,0.001320897,622,-0.000377771,622,0.000954895
621,-0.000528735,621,0.0008252,621,0.001008497,621,0.00123382,621,-0.000137692,621,0.001217933
620,-0.000486177,620,0.001006966,620,0.001153767,620,0.001336216,620,-0.000265819,620,0.001092025
619,-0.000513843,619,0.001191767,619,0.001076273,619,0.001316431,619,-0.000105602,619,0.001115382
618,-0.000439321,618,0.001097761,618,0.001100875,618,0.001530535,618,-0.00019405,618,0.001189976
617,-0.000367994,617,0.001233041,617,0.0010312,617,0.001503546,617,-0.000130446,617,0.001162281
616,-0.000262611,616,0.001280004,616,0.001237013,616,0.001426119,616,-0.000109794,616,0.001334399
615,-0.000288791,615,0.001302021,615,0.001224604,615,0.00150165,615,6.97E-05,615,0.001364494
614,-0.000200725,614,0.001205914,614,0.001265232,614,0.001553838,614,-8.44E-05,614,0.001381867
613,-9.31E-05,613,0.001241166,613,0.001369142,613,0.001694432,613,9.99E-05,613,0.001451571
612,-0.000204503,612,0.001262532,612,0.001416977,612,0.001730789,612,-1.37E-05,612,0.001443208
611,-0.000115333,611,0.001291298,611,0.001477259,611,0.001603304,611,-7.66E-06,611,0.001408043
610,2.35E-05,610,0.001183019,610,0.001530743,610,0.001742095,610,4.79E-05,610,0.00151682
609,-0.000323506,609,0.001123946,609,0.001430768,609,0.001701864,609,-7.09E-05,609,0.001577557
608,-0.000297845,608,0.001028995,608,0.001417704,608,0.001555396,608,-1.24E-06,608,0.001546512
607,-0.000346268,607,0.001023338,607,0.001301242,607,0.001550824,607,-0.000298414,607,0.001383658
606,-0.000454216,606,0.000909186,606,0.00111738,606,0.001333412,606,-0.000289878,606,0.001266166
605,-0.000581424,605,0.000673687,605,0.001020614,605,0.001255185,605,-0.000146697,605,0.001278472
604,-0.000536285,604,0.000813192,604,0.000997392,604,0.001196725,604,-0.000160308,604,0.001273539
603,-0.000739502,603,0.000878526,603,0.001008808,603,0.001168666,603,-0.000340733,603,0.00093453
602,-0.00061658,602,0.000836352,602,0.001051933,602,0.001353198,602,-0.000310883,602,0.001315314
601,-0.000632296,601,0.000761611,601,0.001066983,601,0.001520872,601,-0.000178162,601,0.001299087
600,-0.00056188,600,0.000934997,600,0.001225798,600,0.001501026,600,0.000118911,600,0.001284548
599,-0.00045794,599,0.00129,599,0.001344681,599,0.001632457,599,0.000102546,599,0.001449857
598,-0.000553193,598,0.001247682,598,0.001368233,598,0.001509157,598,7.03E-05,598,0.001661481
597,-0.000370891,597,0.001520352,597,0.001500896,597,0.001859533,597,0.000106301,597,0.001890107
596,-0.000379012,596,0.001385424,596,0.001637887,596,0.001731309,596,4.61E-05,596,0.001901183
595,-0.00037834,595,0.001601381,595,0.001568126,595,0.001933553,595,0.000128543,595,0.002110217
594,-0.000299915,594,0.001530795,594,0.001667224,594,0.00185176,594,0.000249069,594,0.002191721
593,-0.000142246,593,0.001588729,593,0.001837306,593,0.00185423,593,0.000373073,593,0.002335982
592,-0.000296604,592,0.001494272,592,0.001863823,592,0.002032552,592,0.000315406,592,0.002484848
591,-0.000227892,591,0.001502844,591,0.001583065,591,0.002010759,591,0.000486644,591,0.002449052
590,-0.000346113,590,0.001429625,590,0.001680321,590,0.002043762,590,0.000646284,590,0.002497449
589,-0.000321695,589,0.001468688,589,0.001686064,589,0.002197314,589,0.000818794,589,0.002726802
588,-0.000351182,588,0.001342059,588,0.001663976,588,0.002183239,588,0.000772373,588,0.002783905
587,-0.000461612,587,0.001261623,587,0.001616035,587,0.002181574,587,0.00086854,587,0.003087887
586,-0.000663623,586,0.001301008,586,0.001685778,586,0.002046908,586,0.001061871,586,0.003273159
585,-0.000427891,585,0.001355068,585,0.001869516,585,0.002441191,585,0.001318664,585,0.003600661
584,-0.000434718,584,0.001380646,584,0.001942966,584,0.002407663,584,0.001553838,584,0.004032359
583,-0.000564361,583,0.001385424,583,0.001898297,583,0.002569781,583,0.001878486,583,0.004467207
582,-0.000526667,582,0.001585949,582,0.002010498,582,0.002825565,582,0.002244564,582,0.00523442
581,-0.000381961,581,0.00180146,581,0.002297154,581,0.003089843,581,0.002856129,581,0.006119777
580,-0.000410306,580,0.001915951,580,0.002553272,580,0.003479228,580,0.003398291,580,0.006740744
579,-0.000330076,579,0.0024471,579,0.003034811,579,0.004189152,579,0.004141063,579,0.008069702
578,-0.000295517,578,0.002761188,578,0.003282705,578,0.004720002,578,0.00521836,578,0.009301809
577,-0.000159532,577,0.003100584,577,0.003647255,577,0.005175605,577,0.00621548,577,0.010858293
576,-0.000139192,576,0.003529018,576,0.004173418,576,0.006057823,576,0.007405781,576,0.01270026
575,-0.000233377,575,0.004047409,575,0.004466971,575,0.006766247,575,0.009012053,575,0.014689342
574,-0.000258369,574,0.004394218,574,0.005143202,574,0.007628863,574,0.010666229,574,0.017221492
573,-0.000149181,573,0.00477551,573,0.005957771,573,0.008761765,573,0.0126275,573,0.020126898
572,-0.000160412,572,0.005495475,572,0.006806423,572,0.010177166,572,0.015220243,572,0.023895189
571,-0.000313935,571,0.006251641,571,0.007873543,571,0.011658853,571,0.018185986,571,0.028146503
570,-0.000244709,570,0.006959171,570,0.009069169,570,0.01359006,570,0.021820692,570,0.033603732
569,-0.00039484,569,0.007882584,569,0.010428589,569,0.015811576,569,0.025951611,569,0.039664321
568,-0.000166208,568,0.009502874,568,0.012561681,568,0.01931308,568,0.03264603,568,0.048783101
567,-0.000163154,567,0.011080182,567,0.014532139,567,0.022196325,567,0.037630975,567,0.056140129
566,-0.000192135,566,0.013080728,566,0.017043743,566,0.025887972,566,0.04498997,566,0.066887237
565,-0.000131274,565,0.015416102,565,0.020283373,565,0.03080057,565,0.05385584,565,0.079858057
564,-0.000237413,564,0.018057842,564,0.024106547,564,0.03645739,564,0.064453766,564,0.095133305
563,-0.000436994,563,0.021269813,563,0.028399736,563,0.043240067,563,0.076778993,563,0.113123991
562,-0.000289774,562,0.025131395,562,0.033675306,562,0.051263399,562,0.091493025,562,0.13448678
561,-0.000347354,561,0.029422365,561,0.039717332,561,0.060521748,561,0.108966373,561,0.15983288
560,-0.000270528,560,0.035026211,560,0.046920504,560,0.071917765,560,0.129663542,560,0.189433157
559,-0.000240518,559,0.041196272,559,0.055314172,559,0.085027032,559,0.153736144,559,0.224277362
558,-0.000275753,558,0.048665468,558,0.065329492,558,0.100587033,558,0.181971878,558,0.26479277
557,-0.00040472,557,0.057015236,557,0.076704457,557,0.118221596,557,0.214897633,557,0.311926127
556,-0.000390444,556,0.066501349,556,0.090163633,556,0.139007509,556,0.252825707,556,0.366348147
555,-0.00036758,555,0.078166895,555,0.105919957,555,0.163047001,555,0.296928734,555,0.429644018
554,-0.000248693,554,0.091324233,554,0.123872407,554,0.190278068,554,0.347060293,554,0.501834154
553,-0.00028429,553,0.106321856,553,0.144280449,553,0.221856579,553,0.404664725,553,0.584158242
552,-0.000171849,552,0.123334773,552,0.16763477,552,0.257181883,552,0.469588041,552,0.677121222
551,-0.000250193,551,0.142681584,551,0.193817854,551,0.297270328,551,0.542649567,551,0.782166123
550,-0.000296242,550,0.163940489,550,0.222976357,550,0.341790706,550,0.62418294,550,0.898363471
549,-0.00036608,549,0.187913328,549,0.255509347,549,0.391461521,549,0.715026915,549,1.027406931
548,-0.000289464,548,0.214435414,548,0.291183114,548,0.446132988,548,0.81398207,548,1.167982936
547,-0.000277099,547,0.243236676,547,0.330141991,547,0.505932808,547,0.922185242,547,1.319923043
546,-0.000397271,546,0.274296969,546,0.372236341,546,0.570234358,546,1.038386583,546,1.481614947
545,-0.000506759,545,0.307514489,545,0.417365611,545,0.63926822,545,1.163059592,545,1.651307225
544,-0.000154046,544,0.342669755,544,0.464898199,544,0.711707473,544,1.292407632,544,1.822863221
543,-0.000360597,543,0.379245102,543,0.514593303,543,0.78755939,543,1.426685452,543,1.992152095
542,-0.000370581,542,0.416553646,542,0.565521777,542,0.865356028,542,1.562264204,542,2.151783943
541,-0.000429598,541,0.454783112,541,0.617312849,541,0.94450438,541,1.697574735,541,2.294392347
540,-0.000397375,540,0.492945075,540,0.668664277,540,1.022055268,540,1.827103972,540,2.412640333
539,-0.000252884,539,0.529821754,539,0.719050348,539,1.098652601,539,1.949269176,539,2.504682302
538,-0.000366287,538,0.565317571,538,0.766806364,538,1.171230316,538,2.059994221,538,2.571442842
537,-0.000449407,537,0.598286331,537,0.811899483,537,1.23914206,537,2.157713175,537,2.618455172
536,-0.000299811,536,0.628394365,536,0.852655649,536,1.300396442,536,2.239393473,536,2.651552439
535,-0.000255885,535,0.654735386,535,0.888438106,535,1.35391748,535,2.306298971,535,2.67341876
534,-0.000227996,534,0.676338852,534,0.918058455,534,1.398602486,534,2.357418299,534,2.687877178
533,-0.000490728,533,0.693503022,533,0.941219807,533,1.433510661,533,2.39632535,533,2.697766304
532,-0.00042334,532,0.705456495,532,0.957322478,532,1.458122492,532,2.421414852,532,2.703430653
531,-0.000445062,531,0.712026238,531,0.9666906,531,1.471978426,531,2.437169552,531,2.70637989
530,-0.000471748,530,0.71345681,530,0.969052494,530,1.475572348,530,2.440353155,530,2.710888863
529,-0.000523926,529,0.709988713,529,0.964730263,529,1.469507217,529,2.435223818,529,2.70966053
528,-0.000642015,528,0.701843381,528,0.953727901,528,1.453495026,528,2.420495749,528,2.708945751
527,-0.000567877,527,0.689336062,527,0.93719095,527,1.429107785,527,2.395929575,527,2.705832958
526,-0.00053282,526,0.673330784,526,0.915479243,526,1.396676064,526,2.362933874,526,2.698959112
525,-0.000303588,525,0.653949857,525,0.889226556,525,1.357491255,525,2.31793189,525,2.689759016
524,-0.000281031,524,0.631745458,524,0.859275162,524,1.31286478,524,2.263448,524,2.674311399
523,-0.000337836,523,0.607392848,523,0.826448798,523,1.26354754,523,2.199459553,523,2.653001308
522,-8.18E-05,522,0.581874311,522,0.791918993,522,1.211125374,522,2.127502203,522,2.624281883
521,-0.000137692,521,0.555343926,521,0.7558676,521,1.156600118,521,2.047050238,521,2.584067583
520,4.43E-05,520,0.528554499,520,0.719161749,520,1.101510167,520,1.962241888,520,2.532640457
519,0.000235082,519,0.501209736,519,0.682587028,519,1.04565835,519,1.873129368,519,2.466898441
518,0.000197089,518,0.474757016,518,0.646274447,518,0.990730286,518,1.783402085,518,2.391416311
517,0.000174222,517,0.448688656,517,0.610953867,517,0.937027276,517,1.693089247,517,2.304992676
516,1.24E-06,516,0.423735052,516,0.577153802,516,0.885480166,516,1.605107307,516,2.211921692
515,-9.93E-05,515,0.400138408,515,0.545047462,515,0.836610436,515,1.519779563,515,2.115655422
514,-0.000226547,514,0.377828687,514,0.514823139,514,0.790353596,514,1.439083099,514,2.018889189
513,-0.000602673,513,0.356955618,513,0.486730337,513,0.747185051,513,1.363004565,513,1.92376411
512,-0.000544661,512,0.338245452,512,0.460808069,512,0.708003819,512,1.293445468,512,1.833783031
511,-0.000532148,511,0.321168512,511,0.437739462,511,0.672482669,511,1.229648232,511,1.749405622
510,-0.000551797,510,0.305709541,510,0.417010427,510,0.640471041,510,1.172282577,510,1.672693849
509,-0.00050257,509,0.292314589,509,0.39827621,509,0.612127125,509,1.121330619,509,1.603278041
508,-0.000465025,508,0.280495346,508,0.382219225,508,0.587381899,508,1.076414466,508,1.541430354
507,-0.00042996,507,0.270243943,507,0.368364871,507,0.5659917,507,1.037392497,507,1.487688541
506,-0.000408444,506,0.26127401,506,0.356150121,506,0.547307551,506,1.003737926,506,1.44113028
505,-0.000266233,505,0.254018396,505,0.345924527,505,0.531791687,505,0.975182891,505,1.40128386
504,-0.00035739,504,0.247844681,504,0.337276101,504,0.518439233,504,0.950778067,504,1.367243052
503,-0.000172418,503,0.242416322,503,0.329884529,503,0.50717622,503,0.92997241,503,1.338214397
502,-0.000224943,502,0.237965763,502,0.323672861,502,0.497488737,502,0.912346721,502,1.313397646
501,-0.000120043,501,0.234179124,501,0.318096012,501,0.489015758,501,0.896724224,501,1.291193604
500,-0.000196792,500,0.230307311,500,0.313155294,500,0.481081247,500,0.882467508,500,1.271292448
499,-0.000263077,499,0.226849333,499,0.308231175,499,0.473556727,499,0.869054854,499,1.252189755
498,-0.000293034,498,0.223373279,498,0.303578496,498,0.466285378,498,0.855382919,498,1.232999921
497,-0.000348751,497,0.219421163,497,0.298245788,497,0.458218038,497,0.841092348,497,1.212187171
496,-0.00042515,496,0.215265304,496,0.292928487,496,0.449913144,496,0.825538218,496,1.190434337
495,-0.00045582,495,0.210861966,495,0.286836982,495,0.440684438,495,0.808567464,495,1.166037798
494,-0.00060319,494,0.205770254,494,0.27987504,494,0.43034485,494,0.789538682,494,1.138893604
493,-0.000561621,493,0.200489789,493,0.27245906,493,0.418973863,493,0.768235266,493,1.108849883
492,-0.000485867,492,0.194674179,492,0.264328957,492,0.40634051,492,0.745171189,492,1.075673938
491,-0.000496468,491,0.187938392,491,0.25537315,491,0.392534852,491,0.720039845,491,1.03924799
490,-0.000388271,490,0.181019902,490,0.245681554,490,0.378009468,490,0.692974687,490,1.000575423
489,-0.000290137,489,0.173411861,489,0.235631064,489,0.362248987,489,0.664269626,489,0.95927006
488,-0.000304468,488,0.165879861,488,0.22507064,488,0.346224397,488,0.634574533,488,0.916301072
487,-0.000232394,487,0.157936767,487,0.214236543,487,0.329440355,487,0.603646815,487,0.871995211
486,-0.000239431,486,0.149826661,486,0.203183502,486,0.312325209,486,0.572420955,486,0.827197552
485,-5.92E-05,485,0.141424149,485,0.192373604,485,0.295332402,485,0.540974915,485,0.782192648
484,1.40E-05,484,0.133650139,484,0.18127808,484,0.278522879,484,0.510196269,484,0.737660527
483,-0.000188564,483,0.125725895,483,0.170552626,483,0.262049973,483,0.479637593,483,0.693736315
482,-0.000160101,482,0.117954187,482,0.16019617,482,0.245827004,482,0.449869961,482,0.651124001
481,-0.000183389,481,0.110455081,481,0.150069132,481,0.230323061,481,0.42142722,481,0.610199928
480,-0.000295879,480,0.10362424,480,0.140443012,480,0.215858594,480,0.394550204,480,0.571422398
479,-0.000241915,479,0.097185068,479,0.131421551,479,0.201829761,479,0.369122416,479,0.534842849
478,-0.000302398,478,0.090721838,478,0.122841798,478,0.188694641,478,0.345065087,478,0.500413775
477,-0.000318022,477,0.084966116,477,0.114852116,477,0.176805392,477,0.322908372,477,0.468408942
476,-0.000383461,476,0.079687163,476,0.107766584,476,0.165597096,476,0.302552849,476,0.438876212
475,-0.000533596,475,0.074723355,475,0.100786038,475,0.155204535,475,0.283407331,475,0.411407679
474,-0.0004718,474,0.070311628,474,0.094916098,474,0.145929694,474,0.266317487,474,0.386871487
473,-0.000533855,473,0.06628029,473,0.089324772,473,0.137417808,473,0.250592917,473,0.364108026
472,-0.000394685,472,0.062616371,472,0.084478579,472,0.129790708,472,0.2363673,472,0.343576759
471,-0.000566895,471,0.059333224,471,0.079891756,471,0.122979283,471,0.223494694,471,0.325032473
470,-0.000291844,470,0.056386262,470,0.075887017,470,0.11661955,470,0.21193859,470,0.308073938
469,-0.000457371,469,0.053611428,469,0.072077744,469,0.110760845,469,0.201225653,469,0.292513222
468,-0.000373374,468,0.051221862,468,0.068744093,468,0.105663873,468,0.19168967,468,0.278633535
467,-0.000429908,467,0.04909106,467,0.065701753,467,0.10075134,467,0.182719469,467,0.265384913
466,-0.000109794,466,0.046964228,466,0.062871411,466,0.096444376,466,0.174177125,466,0.253495365
465,-0.000124494,465,0.044965856,465,0.059865661,465,0.092090026,465,0.166083008,465,0.241890863
464,-0.000210247,464,0.042943772,464,0.057202686,464,0.087697171,464,0.158812776,464,0.231042475
463,-0.000212679,463,0.040855091,463,0.054492105,463,0.083705544,463,0.151158541,463,0.220442772
462,-8.41E-05,462,0.038835142,462,0.051961139,462,0.079512611,462,0.143906176,462,0.210020378
461,-0.000513378,461,0.036911085,461,0.049168278,461,0.07561741,461,0.13677381,461,0.200131983
460,-0.000679854,460,0.035119127,460,0.046474904,460,0.071651198,460,0.129801571,460,0.190263584
459,-0.000617614,459,0.033316478,459,0.044059113,459,0.068192065,459,0.123010621,459,0.180273905
458,-0.000683524,458,0.031542711,458,0.042090602,458,0.064552926,458,0.116545439,458,0.1710511
457,-0.000422409,457,0.029769424,457,0.0397158,457,0.061088629,457,0.110206388,457,0.161515951
456,-0.000590575,456,0.028150702,456,0.037153039,456,0.057666469,456,0.10370896,456,0.152244851
455,-0.000522892,455,0.026470523,455,0.035187081,455,0.054353435,455,0.097373031,455,0.143158555
454,-0.00059771,454,0.024931299,454,0.032937195,454,0.050935935,454,0.09130165,454,0.134008706
453,-0.000518962,453,0.023338204,453,0.031073121,453,0.047807351,453,0.085573561,453,0.125502169
452,-0.000415582,452,0.021923894,452,0.029049374,452,0.044765476,452,0.079879619,452,0.11740052
451,-0.000209626,451,0.020721696,451,0.027168974,451,0.042076971,451,0.074802779,451,0.109675869
450,-0.000214386,450,0.019404156,450,0.025426293,450,0.039315276,450,0.069398135,450,0.102173358
449,-0.000288636,449,0.018237896,449,0.02384875,449,0.036793355,449,0.064766638,449,0.095372774
448,-0.000155909,448,0.017230785,448,0.022316702,448,0.034158334,448,0.060451053,448,0.089000404
447,-0.000325368,447,0.016250726,447,0.020740485,447,0.032060295,447,0.056087665,447,0.082718216
446,-0.000512137,446,0.015066572,446,0.019215286,446,0.029788332,446,0.052325435,446,0.077228732
445,-9.27E-05,445,0.014629207,445,0.018328425,445,0.028202435,445,0.048971634,445,0.07234446
444,-6.47E-05,444,0.013845498,444,0.017271133,444,0.026417756,444,0.045721579,444,0.067789435
443,-0.00010436,443,0.013008065,443,0.01617839,443,0.024910599,443,0.042737555,443,0.063558429
442,-0.000120819,442,0.012216144,442,0.015428199,442,0.023290815,442,0.040207189,442,0.059782207
441,-0.00023079,441,0.011866148,441,0.014734383,441,0.022064269,441,0.03770709,441,0.056273829
440,-0.000242639,440,0.011069029,440,0.013908251,440,0.021404808,440,0.035604917,440,0.05325155
439,-1.86E-05,439,0.010529596,439,0.013143771,439,0.019951263,439,0.033693545,439,0.05047242
438,-0.000233325,438,0.009932007,438,0.012527202,438,0.018994043,438,0.031644132,438,0.047849547
437,-0.000124028,437,0.009793064,437,0.011874341,437,0.018017393,437,0.030220594,437,0.045539368
436,-9.44E-05,436,0.009396999,436,0.011403901,436,0.01728487,436,0.028703608,436,0.04351582
435,-0.000263905,435,0.009105329,435,0.010909494,435,0.016684052,435,0.027531695,435,0.041777849
434,-0.000150941,434,0.008735564,434,0.01034754,434,0.015951758,434,0.026402103,434,0.03997919
433,-0.000406789,433,0.008281965,433,0.009876234,433,0.015214077,433,0.025377797,433,0.038266029
432,-0.000427943,432,0.008092699,432,0.009811359,432,0.014971229,432,0.024456337,432,0.037090108
431,-0.000307623,431,0.008104171,431,0.009633387,431,0.014574246,431,0.02404679,431,0.036333028
430,-0.000236844,430,0.007972877,430,0.009566591,430,0.014263028,430,0.02339628,430,0.035281099
429,-0.000109846,429,0.007772413,429,0.009459564,429,0.014143606,429,0.022882255,429,0.034819849
428,-0.000265198,428,0.007604495,428,0.009261612,428,0.013926508,428,0.02270272,428,0.034331717
427,-0.000105136,427,0.007789306,427,0.009175546,427,0.013890745,427,0.022635764,427,0.034152202
426,-0.000143178,426,0.007749776,426,0.009128963,426,0.013874521,426,0.022595514,426,0.034084633
425,-0.000205124,425,0.007885853,425,0.009356926,425,0.014123495,425,0.02274628,425,0.034366064
424,-0.000300225,424,0.007840515,424,0.009408929,424,0.014140931,424,0.02282894,424,0.034652919
423,-0.000283669,423,0.007827706,423,0.009371659,423,0.014178319,423,0.023218581,423,0.03492257
422,-0.000294069,422,0.007995605,422,0.009514251,422,0.014469402,422,0.023713704,422,0.035788432
421,-0.00032842,421,0.008035367,421,0.009523115,421,0.014575851,421,0.02416905,421,0.036566045
420,-0.000530028,420,0.007992124,420,0.009771724,420,0.014854692,420,0.024677422,420,0.037643678
419,-0.000467766,419,0.008094413,419,0.009958121,419,0.015329719,419,0.025375025,419,0.038323704
418,-0.000433063,418,0.00843708,418,0.010134107,418,0.015527451,418,0.025907563,418,0.039625242
417,-0.000501846,417,0.008595445,417,0.010653839,417,0.016022634,417,0.026804877,417,0.040849745
416,-0.00040234,416,0.009011049,416,0.010818482,416,0.016578106,416,0.027841143,416,0.042133756
415,-0.00040203,415,0.009122222,415,0.011211303,415,0.017121339,415,0.028735965,415,0.043210473
414,-0.000177593,414,0.009487661,414,0.011790229,414,0.017722629,414,0.029684685,414,0.044547897
413,-0.000318126,413,0.009921174,413,0.011839093,413,0.01833385,413,0.030611483,413,0.046002682
412,-0.000177593,412,0.009990357,412,0.012563253,412,0.018650621,412,0.031533778,412,0.047019608
411,-0.000205072,411,0.010341548,411,0.012440301,411,0.019173456,411,0.032429136,411,0.04825053
410,-6.07E-05,410,0.010546624,410,0.01280617,410,0.019919364,410,0.03318787,410,0.049314696
409,-0.000253039,409,0.010737785,409,0.013114049,409,0.020013468,409,0.0339799,409,0.050215751
408,-7.99E-05,408,0.010757951,408,0.013140223,408,0.020469915,408,0.034493282,408,0.051135164
407,-0.000235602,407,0.010926987,407,0.013535924,407,0.020682029,407,0.035148568,407,0.052202489
406,-0.00017868,406,0.011259039,406,0.013707728,406,0.021206068,406,0.035799284,406,0.052985869
405,-0.000231411,405,0.011659359,405,0.014024535,405,0.021416068,405,0.036617469,405,0.054223403
404,-0.000393754,404,0.011071312,404,0.013950431,404,0.021316411,404,0.036912296,404,0.05476993
403,-0.000951147,403,0.011186069,403,0.014116275,403,0.021376964,403,0.037584007,403,0.055764437
402,-0.001043606,402,0.011372144,402,0.014174708,402,0.021849709,402,0.038290624,402,0.056763262
401,-0.000810613,401,0.011717701,401,0.014669153,401,0.022498067,401,0.039316691,401,0.058103021
400,-0.000538819,400,0.01210053,400,0.015265686,400,0.023105215,400,0.040378708,400,0.059750721
399,-0.000709162,399,0.012270834,399,0.015570191,399,0.02359537,399,0.041240558,399,0.060801491
398,-0.000665639,398,0.012204456,398,0.015787387,398,0.024146115,398,0.042182904,398,0.06232712
397,-0.00044951,397,0.012823179,397,0.016268354,397,0.02476404,397,0.0430061,397,0.063753068
396,-0.000328007,396,0.013093079,396,0.016769225,396,0.025460217,396,0.044155989,396,0.065388985
395,-0.000500553,395,0.013344568,395,0.016623935,395,0.025792614,395,0.044948056,395,0.067068085
394,-0.000292672,394,0.013190227,394,0.016731102,394,0.026416132,394,0.04598815,394,0.068117902
393,-0.000462802,393,0.013661592,393,0.017259469,393,0.026999531,393,0.0471825,393,0.06980487
392,-0.000580752,392,0.014090898,392,0.017711142,392,0.027449898,392,0.047867667,392,0.07085219
391,-0.000234515,391,0.015026348,391,0.018783696,391,0.028479829,391,0.04952357,391,0.072706617
390,0.000131106,390,0.014981116,390,0.018950667,390,0.028967513,390,0.050324623,390,0.073639497
389,0.000451945,389,0.015241316,389,0.019183494,389,0.029277572,389,0.05066704,389,0.074246809
388,-0.000200259,388,0.014940632,388,0.019076208,388,0.028983979,388,0.050547879,388,0.074005105
387,-2.86E-05,387,0.014743836,387,0.018946368,387,0.028806303,387,0.05059598,387,0.074130759
386,-0.000242639,386,0.014900606,386,0.018938635,386,0.028725151,386,0.050360288,386,0.073928438
385,-0.000191876,385,0.014841486,385,0.018858684,385,0.028716413,385,0.050182685,385,0.073687777
384,-0.00037265,384,0.014610332,384,0.018579505,384,0.028143493,384,0.049567845,384,0.072914742
383,-0.000542076,383,0.014313134,383,0.018493678,383,0.027731668,383,0.049193557,383,0.072075151
382,-0.000361787,382,0.014197923,382,0.018115269,382,0.027440138,382,0.048631676,382,0.071079366
381,-0.000470766,381,0.014283493,381,0.018230472,381,0.027503259,381,0.048322886,381,0.070766747
380,-0.000415737,380,0.013308854,380,0.01691871,380,0.026350942,380,0.047196757,380,0.069469422
379,-0.001266306,379,0.012951175,379,0.016561944,379,0.025897177,379,0.046489138,379,0.068435431
378,-0.000574599,378,0.013239435,378,0.016992487,378,0.026413741,378,0.04666388,378,0.068264581
377,-0.000471542,377,0.013476242,377,0.017204713,377,0.025961339,377,0.046051811,377,0.067941874
376,-0.000359149,376,0.012930373,376,0.016785046,376,0.026076196,376,0.04588085,376,0.067722358
375,-0.000717897,375,0.013181981,375,0.01712239,375,0.026420204,375,0.046507865,375,0.068223506
374,3.94E-05,374,0.01418859,374,0.017992003,374,0.027361613,374,0.04740487,374,0.069665939
373,-3.83E-05,373,0.014269476,373,0.018286817,373,0.027685121,373,0.048245613,373,0.070750088
372,-0.000342647,372,0.014664414,372,0.018584503,372,0.028164567,372,0.049132567,372,0.071852952
371,-3.27E-05,371,0.014789123,371,0.018996179,371,0.028667577,371,0.050568063,371,0.074161097
370,-0.000239897,370,0.015163277,370,0.019775618,370,0.029900767,370,0.052528191,370,0.076853514
369,-7.40E-05,369,0.016171001,369,0.020560205,369,0.030998969,369,0.055252638,369,0.080182523
368,-6.68E-05,368,0.016634183,368,0.021501983,368,0.032924965,368,0.058529407,368,0.085080966
367,-0.000137536,367,0.017052896,367,0.022145301,367,0.034080744,367,0.060890265,367,0.088725142
366,-5.38E-06,366,0.018445574,366,0.023936789,366,0.036838211,366,0.065482698,366,0.095466614
365,-0.00015741,365,0.019872483,365,0.025885416,365,0.03956138,365,0.070755601,365,0.102793865
364,-0.000137174,364,0.021834521,364,0.028157717,364,0.043073557,364,0.076716878,364,0.111671507
363,-0.000165897,363,0.023144802,363,0.029932104,363,0.0459245,363,0.08306428,363,0.120874353
362,-0.00044982,362,0.024865532,362,0.032548171,362,0.050177861,362,0.091054291,362,0.132296875
361,-0.000344354,361,0.027774163,361,0.036825869,361,0.056267846,361,0.100923248,361,0.146809772
360,-0.00073087,360,0.02906598,360,0.038809244,360,0.060017843,360,0.109339602,360,0.159581348
359,-0.000602104,359,0.031008422,359,0.041872419,359,0.065334402,359,0.120221622,359,0.175245404
358,-0.000604017,358,0.036028583,358,0.048207548,358,0.074087411,358,0.134715974,358,0.19566147
357,-0.000486022,357,0.040235471,357,0.053692035,357,0.082463808,357,0.149345264,357,0.216107801
356,-0.000677528,356,0.043865941,356,0.058749396,356,0.090524711,356,0.164297938,356,0.238125727
355,-0.000855878,355,0.049041789,355,0.065799482,355,0.100807525,355,0.182324946,355,0.263696313
354,-0.000507534,354,0.051282711,354,0.06986884,354,0.107637644,354,0.196876407,354,0.285639644
353,-0.000843219,353,0.055105057,353,0.074748136,353,0.116163597,353,0.213170677,353,0.308828861
352,-0.000217025,352,0.061612215,352,0.082354896,352,0.127041727,352,0.2311102,352,0.334313899
351,-0.000384392,351,0.064682901,351,0.087617666,351,0.134634748,351,0.24597539,351,0.355273277
350,4.32E-05,350,0.069980256,350,0.093328513,350,0.142793953,350,0.259719253,350,0.373962224
349,-0.000620923,349,0.068500951,349,0.092290878,349,0.14286837,349,0.262571216,349,0.380675107
348,0.000317892,348,0.071064793,348,0.095562048,348,0.147292137,348,0.271692932,348,0.392346263
347,-0.000642222,347,0.070394509,347,0.093929783,347,0.145163357,347,0.26753524,347,0.387006283
346,-0.000105809,346,0.068850428,346,0.091435671,346,0.141582176,346,0.261287332,346,0.376314342
345,-0.00106003,345,0.064891756,345,0.086954668,345,0.134525031,345,0.24873659,345,0.359519422
344,5.05E-05,344,0.062867641,344,0.082954064,344,0.128210098,344,0.237001181,344,0.341901183
343,0.000266138,343,0.05887996,343,0.078655303,343,0.120278604,343,0.222580493,343,0.320271701
342,0.000394086,342,0.055524949,342,0.073698819,342,0.112961121,342,0.208562329,342,0.301028609
341,0.000464513,341,0.052197117,341,0.069508575,341,0.106281258,341,0.195428431,341,0.281618953
340,7.95E-05,340,0.048802592,340,0.065455221,340,0.10027048,340,0.184276506,340,0.265299588
339,0.000314318,339,0.04570999,339,0.062103014,339,0.094797969,339,0.174420312,339,0.251936436
338,-3.58E-05,338,0.043862417,338,0.05925465,338,0.091242366,338,0.166613787,338,0.24116379
337,-0.000401565,337,0.042069726,337,0.057091162,337,0.087539569,337,0.160586283,337,0.232538581
336,-5.46E-05,336,0.040990599,336,0.055704691,336,0.085551932,336,0.156515434,336,0.226325274
335,-0.000329352,335,0.040089499,335,0.053879838,335,0.083328202,335,0.152545169,335,0.220823914
334,-0.000200001,334,0.039583299,334,0.05269533,334,0.081610903,334,0.149306059,334,0.216583729
333,-0.000518187,333,0.03919236,333,0.051815312,333,0.080011159,333,0.146263227,333,0.211609274
332,3.18E-05,332,0.037901439,332,0.050562594,332,0.078344628,332,0.14244622,332,0.206200898
331,0.000166116,331,0.036313299,331,0.049092624,331,0.075843826,331,0.138135001,331,0.199956298
330,-0.000360442,330,0.035280764,330,0.046702333,330,0.072575197,330,0.132161707,330,0.192338124
329,-0.00028993,329,0.033838898,329,0.045224607,329,0.069095045,329,0.126571477,329,0.184053212
328,-0.000447183,328,0.032249682,328,0.043215189,328,0.066228524,328,0.120687872,328,0.174986422
327,5.16E-05,327,0.031097313,327,0.040619224,327,0.063208871,327,0.115317024,327,0.166626141
326,-0.000129255,326,0.029160731,326,0.039080609,326,0.059850864,326,0.109974876,326,0.158304468
325,0.000706588,325,0.028382435,325,0.037758928,325,0.057831749,325,0.105113313,325,0.152137369
324,-0.000474541,324,0.026111491,324,0.035664964,324,0.055050928,324,0.100821532,324,0.146374241
323,-0.000371822,323,0.025837667,323,0.034977134,323,0.054030612,323,0.097829573,323,0.141800493
322,0.000124555,322,0.026171615,322,0.034483306,322,0.053639106,322,0.096695013,322,0.139705151
321,-0.000452251,321,0.025351012,321,0.034000643,321,0.052928727,321,0.095479161,321,0.138478443
320,-0.000389668,320,0.02501709,320,0.03439736,320,0.052654766,320,0.095351562,320,0.138382167
319,0.000420333,319,0.026507996,319,0.034282606,319,0.05382337,319,0.096509188,319,0.140705422
318,-0.000632141,318,0.025993245,318,0.034792278,318,0.054162696,318,0.098296016,318,0.142346799
317,-0.000299811,317,0.026614383,317,0.035277843,317,0.055154372,317,0.100473031,317,0.145898357
316,-8.53E-05,316,0.027503757,316,0.036707658,316,0.057480089,316,0.103869915,316,0.151237264
315,-0.000495951,315,0.028204674,315,0.037605345,315,0.059165351,315,0.107698873,315,0.156581432
314,-4.56E-06,314,0.03021696,314,0.039954841,314,0.06210573,314,0.113375537,314,0.163774133
313,-0.000326662,313,0.031413656,313,0.041901413,313,0.065076046,313,0.11931406,313,0.173132718
312,-0.00036308,312,0.033804871,312,0.045303613,312,0.069437161,312,0.127244309,312,0.184315637
311,-0.000475369,311,0.0361364,311,0.04790267,311,0.073984355,311,0.135746017,311,0.196920976
310,-3.85E-05,310,0.03926903,310,0.052504528,310,0.080991343,310,0.147180811,310,0.213117361
309,-0.000275029,309,0.042570125,309,0.056432128,309,0.087027915,309,0.159878701,309,0.231907651
308,-0.000187322,308,0.047079667,308,0.062925868,308,0.096737772,308,0.177438676,308,0.256659299
307,-0.000483901,307,0.050416335,307,0.067910485,307,0.103704393,307,0.190330669,307,0.274781227
306,-4.42E-05,306,0.055261545,306,0.073749155,306,0.113286756,306,0.20789139,306,0.299455941
305,-0.000237051,305,0.05972657,305,0.080476344,305,0.123288214,305,0.225910619,305,0.326225221
304,-0.000381185,304,0.064742029,304,0.087313496,304,0.133857817,304,0.245198429,304,0.353490204
303,0.000312142,303,0.069994397,303,0.094810881,303,0.14517504,303,0.264075339,303,0.38125965
302,-9.04E-05,302,0.074729316,302,0.100802004,302,0.154586718,302,0.283094674,302,0.40938443
301,0.000186108,301,0.08002121,301,0.107701726,301,0.165118009,301,0.301901311,301,0.435626477
300,0.000309732,300,0.083581418,300,0.113534093,300,0.174110949,300,0.318977356,300,0.460563809
299,-0.000240104,299,0.088097639,299,0.118632667,299,0.182071984,299,0.334186792,299,0.4822869
298,6.50E-05,298,0.091473818,298,0.123485997,298,0.189463273,298,0.347578764,298,0.502256751
297,0.000204599,297,0.094235666,297,0.127400518,297,0.195549995,297,0.358567745,297,0.518527806
296,0.00010454,296,0.096905284,296,0.130094916,296,0.199302599,296,0.366808236,296,0.528900802
295,0.000418778,295,0.098175697,295,0.132441074,295,0.202994809,295,0.372136533,295,0.537038744
294,0.000381882,294,0.098900467,294,0.133090004,294,0.204901487,294,0.376681298,294,0.542458534
293,0.000412352,293,0.099533044,293,0.134134889,293,0.206179619,293,0.379338026,293,0.546375573
292,-0.000105654,292,0.099647902,292,0.13422595,292,0.206781581,292,0.380233437,292,0.548345685
291,9.25E-05,291,0.100699633,291,0.136240512,291,0.208733678,291,0.383397192,291,0.552823544
290,-0.000214645,290,0.100212574,290,0.136077881,290,0.210248753,290,0.385785848,290,0.556385517
289,-0.000281496,289,0.101452984,289,0.137790695,289,0.212812007,289,0.39034754,289,0.563106298
288,-0.000383771,288,0.104249388,288,0.139756888,288,0.21620518,288,0.396092236,288,0.571686387
287,-0.000358269,287,0.105117202,287,0.142828003,287,0.220067814,287,0.403094977,287,0.581385791
286,0.000575127,286,0.108668156,286,0.145875901,286,0.225482747,286,0.411013007,286,0.592590272
285,-0.001048151,285,0.109942161,285,0.148415476,285,0.228387848,285,0.41831851,285,0.602906466
284,-0.000166208,284,0.111824326,284,0.150329948,284,0.232353389,284,0.425185889,284,0.614006221
283,-0.000124131,283,0.113424949,283,0.152908161,283,0.235897049,283,0.432480544,283,0.622265339
282,-0.000403013,282,0.115144558,282,0.155452758,282,0.240270183,282,0.436540216,282,0.629041553
281,-0.000229134,281,0.11601828,281,0.156944871,281,0.242596716,281,0.442224413,281,0.636952579
280,6.23E-05,280,0.118127331,280,0.158148259,280,0.245610461,280,0.447123766,280,0.642334938
279,-1.88E-05,279,0.119215332,279,0.159370124,279,0.246061012,279,0.449873895,279,0.647214592
278,0.000292869,278,0.119296953,278,0.161069468,278,0.247843579,278,0.451672524,278,0.648385167
277,-0.001470007,277,0.119148575,277,0.160289168,277,0.247542337,277,0.452101886,277,0.647345305
276,-0.000458457,276,0.119492933,276,0.160848707,276,0.247856766,276,0.451051503,276,0.644641757
275,0.000251736,275,0.117796488,275,0.160230726,275,0.244527653,275,0.446170896,275,0.639320433
274,-0.002288492,274,0.117009111,274,0.155516043,274,0.242056578,274,0.440066338,274,0.623459578
273,-0.002585802,273,0.113796853,273,0.154316381,273,0.234190404,273,0.428090543,273,0.604516327
272,-0.001406693,272,0.110924728,272,0.145234317,272,0.227570564,272,0.411612868,272,0.57589674
271,-0.000442683,271,0.104385749,271,0.139065474,271,0.21243377,271,0.390198439,271,0.538356245
270,-0.002213811,270,0.091660701,270,0.124698512,270,0.196906805,270,0.352959842,270,0.486251533
269,-0.006005813,269,0.080018438,269,0.107885934,269,0.173450336,269,0.317698628,269,0.413680226
268,-0.001303213,268,0.067158811,268,0.093003929,268,0.141469181,268,0.272865802,268,0.354687095
267,-0.002143547,267,0.04756242,267,0.070504449,267,0.121792451,267,0.257744879,267,0.298960805
266,-0.000508413,266,0.044799827,266,0.054704096,266,0.098926798,266,0.21977295,266,0.246097356
265,-0.002901114,265,0.018567672,265,0.038931087,265,0.072630852,265,0.181183502,265,0.212024033
264,0.007166496,264,0.021857902,264,0.03940152,264,0.080859385,264,0.194165826,264,0.195698723
263,-0.003471838,263,0.010852427,263,0.031506807,263,0.067142256,263,0.180698976,263,0.188609988
262,-0.007412863,262,0.01553051,262,0.034859143,262,0.051974062,262,0.170781359,262,0.190905735
261,0.009034147,261,0.0134701,261,0.034307316,261,0.06217619,261,0.166872576,261,0.187260568
260,-0.011061177,260,0.009175519,260,0.030467097,260,0.062665589,260,0.152320251,260,0.166271508
259,0.008436446,259,0.017693995,259,0.039800536,259,0.068674743,259,0.165148377,259,0.175124466
258,-0.007594218,258,-0.001739878,258,0.017561277,258,0.042156149,258,0.153687179,258,0.151680678
257,0.01647165,257,0.01696172,257,0.028290065,257,0.060087428,257,0.154040381,257,0.157680407
256,-0.015507456,256,0.02198121,256,0.022598159,256,0.061319187,256,0.14756617,256,0.170722753
255,-0.005065684,255,0.011387451,255,0.021346347,255,0.027512746,255,0.139484495,255,0.150933161
254,0.007247744,254,0.012486573,254,0.030657873,254,0.050612036,254,0.147762746,254,0.143426001
253,0.002539368,253,0.009897419,253,0.021515692,253,0.045941014,253,0.143210888,253,0.145023048
252,0.008308904,252,0.006788753,252,0.022154644,252,0.045073789,252,0.132133812,252,0.145960271
251,-0.002598153,251,-0.000726425,251,0.022992861,251,0.051926214,251,0.144634306,251,0.144873425
250,0.008300276,250,-0.003950658,250,0.02915453,250,0.058595464,250,0.136390492,250,0.141645834
249,-0.004344794,249,-0.000154253,249,0.018380594,249,0.062033523,249,0.135541022,249,0.14306663
248,-0.002839603,248,0.020050932,248,0.037891805,248,0.062261775,248,0.150397688,248,0.150675491
247,0.00875783,247,0.017955447,247,0.027129844,247,0.052275185,247,0.13835904,247,0.137768582
246,0.015019005,246,0.027577396,246,0.04694571,246,0.066355169,246,0.140872166,246,0.157058582
245,0.000887553,245,0.004062433,245,0.022838162,245,0.042104408,245,0.140429348,245,0.137354374
244,-0.00329086,244,0.006461335,244,0.017912742,244,0.05554663,244,0.137951449,244,0.137600437
243,-0.004838371,243,0.01740597,243,0.029526699,243,0.050986934,243,0.132920206,243,0.140389681
242,-0.004615396,242,-0.001313795,242,0.013965026,242,0.050974242,242,0.12898688,242,0.132029101
241,-0.005860316,241,0.016771216,241,0.030755222,241,0.058013812,241,0.132660106,241,0.142673165
240,0.001564151,240,0.021676723,240,0.023003614,240,0.052307155,240,0.128741518,240,0.133584723
239,-0.004154386,239,0.022089381,239,0.024120584,239,0.045145731,239,0.133387953,239,0.130145431
238,0.001621829,238,0.012120759,238,0.032483336,238,0.053727098,238,0.126298249,238,0.140465573
237,0.004518131,237,0.014352063,237,0.022893634,237,0.062756509,237,0.139128134,237,0.146488294
236,0.002108708,236,0.017596832,236,0.021462247,236,0.046574831,236,0.12651813,236,0.132529467
235,-0.00570215,235,0.025604595,235,0.035112701,235,0.049337782,235,0.128851011,235,0.131423682
234,-0.017542828,234,0.000428676,234,0.025500925,234,0.038756993,234,0.128594995,234,0.134739578
233,0.001468948,233,0.012073008,233,0.038880467,233,0.056904886,233,0.133308947,233,0.131296217
232,0.00445549,232,0.019499205,232,0.0252268,232,0.05103334,232,0.144345984,232,0.129800275
231,-0.000761363,231,0.005978636,231,0.041084375,231,0.052487906,231,0.141599774,231,0.127676249
230,0.013744117,230,0.015185017,230,0.040509664,230,0.071476027,230,0.143438742,230,0.144135788
229,0.007439434,229,0.027231202,229,0.031169841,229,0.062261149,229,0.139435962,229,0.129113197
228,-0.011581563,228,0.00608641,228,0.014377936,228,0.038441423,228,0.138434544,228,0.123999886
227,0.012032874,227,0.002399281,227,0.04163805,227,0.035949472,227,0.134789959,227,0.138826117
226,-0.002236011,226,0.011603788,226,0.020922225,226,0.057861473,226,0.130967438,226,0.128901616
225,-0.013011041,225,0.017031224,225,0.019384587,225,0.054242671,225,0.126965359,225,0.129187152
224,0.002642542,224,0.009885343,224,0.017968854,224,0.025366353,224,0.152225226,224,0.135542497
223,0.009423426,223,-0.00598212,223,0.028793136,223,0.04631317,223,0.135931969,223,0.13205345
222,-0.014686754,222,0.001885661,222,0.007874887,222,0.027046829,222,0.111468427,222,0.124497108
221,0.011187158,221,0.022457395,221,0.025761409,221,0.065150715,221,0.16300112,221,0.135444537
220,0.005713959,220,0.025758415,220,0.039851576,220,0.048978038,220,0.138499886,220,0.132256463
219,-0.016520977,219,-0.003767467,219,0.015363696,219,0.044818252,219,0.158390313,219,0.142124072
218,0.001202098,218,0.043143451,218,0.037776183,218,0.052976307,218,0.16573599,218,0.136379078
217,-0.019132571,217,0.000205661,217,0.045965619,217,0.046140496,217,0.169436351,217,0.13527146
216,-0.000854276,216,0.036237743,216,0.026064899,216,0.073926814,216,0.151097328,216,0.148223922
215,0.01886493,215,0.014875024,215,0.036156178,215,0.070419289,215,0.133280024,215,0.134904519
214,0.005606303,214,0.055406917,214,0.050282508,214,0.09272147,214,0.171477526,214,0.165396377
213,0.00827806,213,0.035534564,213,0.041595887,213,0.086057596,213,0.155470461,213,0.152762041
212,0.006685458,212,0.032127608,212,0.058158536,212,0.058514982,212,0.170722485,212,0.194985449
211,0.016459417,211,0.031461272,211,0.069940083,211,0.068702824,211,0.129158214,211,0.190581426
210,0.010825064,210,0.050874118,210,0.091266416,210,0.110988297,210,0.173537612,210,0.184444383
209,0.035930492,209,0.067325272,209,0.089596473,209,0.110088728,209,0.198354051,209,0.239858821
208,-0.006873492,208,0.053250119,208,0.079636946,208,0.075782396,208,0.16360651,208,0.174978599
207,0.016471112,207,0.082838833,207,0.10258951,207,0.100931801,207,0.185331836,207,0.193065956
206,0.02409935,206,0.100380875,206,0.086837232,206,0.104881793,206,0.193128333,206,0.198908493
205,-0.008074157,205,0.04041715,205,0.068263553,205,0.108894117,205,0.163926035,205,0.190064058
204,0.007077818,204,0.078160048,204,0.080052331,204,0.116629809,204,0.199500322,204,0.198758736
203,-0.002804369,203,0.043182164,203,0.049156047,203,0.082754135,203,0.171157241,203,0.192506939
202,0.002471831,202,0.05562127,202,0.062262822,202,0.09495575,202,0.151198611,202,0.189513847
201,0.02127786,201,0.065187894,201,0.097140938,201,0.126085624,201,0.155492082,201,0.175125405
200,0.027057134,200,0.076001279,200,0.110442899,200,0.126403973,200,0.168993965,200,0.217212543
